Variance(VAR)_0,MeanAbsoluteValue(MAV)_0,RootMeanSquare(RMS)_0,WaveformLength(WL)_0,Mean(MEAN)_0,StandardDeviation(SD)_0,Median_0,Peak(PK)_0,Min(MIN)_0,IntegralEMG(iEMG)_0,AverageAmplitudeChange(ACC)_0,Kurtosis(KURT)_0,Skewness(SKEW)_0,Variance(VAR)_1,MeanAbsoluteValue(MAV)_1,RootMeanSquare(RMS)_1,WaveformLength(WL)_1,Mean(MEAN)_1,StandardDeviation(SD)_1,Median_1,Peak(PK)_1,Min(MIN)_1,IntegralEMG(iEMG)_1,AverageAmplitudeChange(ACC)_1,Kurtosis(KURT)_1,Skewness(SKEW)_1,Variance(VAR)_2,MeanAbsoluteValue(MAV)_2,RootMeanSquare(RMS)_2,WaveformLength(WL)_2,Mean(MEAN)_2,StandardDeviation(SD)_2,Median_2,Peak(PK)_2,Min(MIN)_2,IntegralEMG(iEMG)_2,AverageAmplitudeChange(ACC)_2,Kurtosis(KURT)_2,Skewness(SKEW)_2,Variance(VAR)_3,MeanAbsoluteValue(MAV)_3,RootMeanSquare(RMS)_3,WaveformLength(WL)_3,Mean(MEAN)_3,StandardDeviation(SD)_3,Median_3,Peak(PK)_3,Min(MIN)_3,IntegralEMG(iEMG)_3,AverageAmplitudeChange(ACC)_3,Kurtosis(KURT)_3,Skewness(SKEW)_3,Variance(VAR)_4,MeanAbsoluteValue(MAV)_4,RootMeanSquare(RMS)_4,WaveformLength(WL)_4,Mean(MEAN)_4,StandardDeviation(SD)_4,Median_4,Peak(PK)_4,Min(MIN)_4,IntegralEMG(iEMG)_4,AverageAmplitudeChange(ACC)_4,Kurtosis(KURT)_4,Skewness(SKEW)_4,Variance(VAR)_5,MeanAbsoluteValue(MAV)_5,RootMeanSquare(RMS)_5,WaveformLength(WL)_5,Mean(MEAN)_5,StandardDeviation(SD)_5,Median_5,Peak(PK)_5,Min(MIN)_5,IntegralEMG(iEMG)_5,AverageAmplitudeChange(ACC)_5,Kurtosis(KURT)_5,Skewness(SKEW)_5,Variance(VAR)_6,MeanAbsoluteValue(MAV)_6,RootMeanSquare(RMS)_6,WaveformLength(WL)_6,Mean(MEAN)_6,StandardDeviation(SD)_6,Median_6,Peak(PK)_6,Min(MIN)_6,IntegralEMG(iEMG)_6,AverageAmplitudeChange(ACC)_6,Kurtosis(KURT)_6,Skewness(SKEW)_6,label
3.2757760000000005,2.928,3.3609522460160006,332.0,-2.832,1.8099104950245468,-3.0,1.0,-7.0,732.0,1.328,-0.4243994191597378,0.19839682398188135,3.212304,3.3,3.6991891003299626,344.0,-3.236,1.7922901550809234,-3.0,1.0,-7.0,825.0,1.376,-0.4282649526840916,0.30212618168818994,3.690256,2.596,3.0835044997534866,354.0,-2.412,1.9210039042125866,-2.0,3.0,-6.0,649.0,1.416,-0.45528601292733395,0.14149971561961472,9.910144,4.344,5.2360290297132615,392.0,-4.184,3.148038119210122,-4.0,3.0,-11.0,1086.0,1.568,-0.8340530784417073,-0.09729529385620349,9.146064,5.108,5.805859109554761,391.0,-4.956,3.024246021738311,-5.0,2.0,-11.0,1277.0,1.564,-0.47655192132125057,0.3718240718304874,6.7604,2.892,3.5793854221081025,367.0,-2.46,2.600076921939041,-3.0,3.0,-11.0,723.0,1.468,-0.2256905480682918,-0.17802880467435078,4.053456,2.684,3.123459620356889,354.0,-2.388,2.0133196467525964,-3.0,3.0,-7.0,671.0,1.416,-0.08670173049798491,0.4524786088089923,IdleResting
10.455376,5.42,6.0116553460756545,388.0,-5.068,3.233477385107247,-6.0,5.0,-11.0,1355.0,1.552,0.41243791495155735,0.8121699931099257,136.57441599999999,11.908,16.62756747092009,446.0,-11.828,11.68650572241335,-8.0,3.0,-53.0,2977.0,1.784,1.96820358659585,-1.7154863432979028,103.29089599999999,18.652,21.241186407543246,449.0,-18.652,10.163212877825593,-16.0,0.0,-53.0,4663.0,1.796,0.7179967796473954,-0.9660748409776856,48.750096000000006,17.86,19.16882886354824,370.0,-17.852,6.982126896583877,-18.0,1.0,-35.0,4465.0,1.48,-0.15337349995126415,0.27457515798558496,169.158016,11.408,14.033958814247674,364.0,-5.272,13.006076118491695,-2.0,11.0,-31.0,2852.0,1.456,-1.2809083400134014,-0.46536580015423895,6.3216,7.128,7.513188404399293,373.0,7.08,2.5142792207708355,8.0,11.0,-2.0,1782.0,1.492,1.6794760108981182,-1.284846626099716,3.0206239999999998,7.876,8.065482006675113,352.0,7.876,1.7379942462505449,8.0,12.0,4.0,1969.0,1.408,-0.48276614863107925,-0.27551788118120174,IndexExtension
7.781696,3.592,4.131827682757353,310.0,-3.048,2.7895691423587263,-4.0,4.0,-8.0,898.0,1.24,-0.8051522546074348,0.5989002640022959,48.7344,6.088,7.219418259112018,352.0,-1.84,6.981002793295531,-5.0,22.0,-8.0,1522.0,1.408,3.197720815254243,2.064375257015415,138.595984,12.94,15.44396322191943,421.0,9.996,11.77267955904687,12.0,46.0,-7.0,3235.0,1.684,-0.7987963369463684,0.11955726853949508,64.828096,14.44,16.45624501519104,433.0,14.352,8.05158965670755,14.0,46.0,-4.0,3610.0,1.732,0.9891295452380913,0.3835818396484044,100.9524,8.628,10.164841366199475,375.0,1.54,10.047507153518229,0.0,20.0,-13.0,2157.0,1.5,-1.2633762238133415,0.3067588728537662,20.354176000000006,10.296,11.18248630672088,328.0,-10.232,4.511560262259611,-12.0,2.0,-17.0,2574.0,1.312,0.023418267575552765,0.9098096496089215,6.489104,11.836,12.107022755409359,320.0,-11.836,2.5473719791188723,-12.0,-3.0,-17.0,2959.0,1.28,-0.09224311095181514,0.40307832489788803,IndexFlexion
3.9352960000000006,4.448,4.870318264754368,403.0,-4.448,1.983758049763126,-4.0,0.0,-10.0,1112.0,1.612,-0.10393736285954969,-0.12771721237322448,43.315903999999996,8.936,11.098107946852924,442.0,-8.936,6.581481899997902,-6.0,-1.0,-32.0,2234.0,1.768,0.6140352864515677,-1.2314628196502357,32.463056,13.212,14.388189601197226,410.0,-13.212,5.697636001009542,-14.0,-1.0,-32.0,3303.0,1.64,0.1373574324408069,-0.09746814108917959,42.64089599999999,9.624,10.99672678573038,379.0,-8.848,6.529999693721279,-11.0,5.0,-21.0,2406.0,1.516,-0.7678534131939259,0.5318113792773916,29.7344,4.52,5.455272678794342,366.0,-0.16,5.452925820144632,2.0,9.0,-14.0,1130.0,1.464,-0.5541718326013849,-0.8136414032461919,6.121344,2.368,3.0502458917274193,316.0,1.784,2.4741350003587113,1.5,9.0,-3.0,592.0,1.264,-0.43829593299486236,0.3338856461377942,3.88,1.824,2.3065125189341593,294.0,-1.2,1.969771560359221,-1.0,3.0,-6.0,456.0,1.176,-0.7915825273674146,-0.12246958899034376,LittleExtension
3.994624,3.44,3.923263947276553,367.0,-3.376,1.9986555481122803,-3.0,1.0,-9.0,860.0,1.468,-0.17287521432137254,-0.05322060067251917,3.2084639999999998,2.42,2.8712366673612957,368.0,-2.244,1.79121857962673,-2.0,2.0,-7.0,605.0,1.472,-0.25720549715396634,0.017943509568202908,206.831184,12.74,19.123075066526305,403.0,-12.604,14.3816266117571,-4.0,2.0,-57.0,3185.0,1.612,0.06311980396503092,-1.0445122274877665,140.1444,17.54,21.161190892764047,407.0,-17.54,11.838260007281475,-16.0,-2.0,-57.0,4385.0,1.628,0.6706301855421817,-0.9517480044756325,112.856576,9.52,11.227110046668288,340.0,-3.632,10.623397573281347,-5.0,19.0,-26.0,2380.0,1.36,-0.7542121318415362,0.2190942211991177,54.317584,8.644,10.300485425454472,347.0,7.196,7.370046404195838,7.0,20.0,-13.0,2161.0,1.388,-0.3397783015266316,-0.41192292649582474,32.998416,6.42,8.431607201477071,387.0,6.172,5.744424775380038,4.0,20.0,-4.0,1605.0,1.548,-0.565983999876523,0.7411163362853197,LittleFlexion
15.618176,5.04,6.19289915952133,420.0,-4.768,3.951983805634836,-4.0,6.0,-18.0,1260.0,1.68,1.265956162757024,-0.7822515243020802,16.722304,5.176,6.257155903443673,414.0,-4.736,4.089291381156398,-5.0,6.0,-17.0,1294.0,1.656,0.9808057617215389,-0.4673494472342134,22.078464000000007,4.632,5.716642371182581,410.0,-3.256,4.698772605691832,-4.0,7.0,-17.0,1158.0,1.64,0.014558423634610573,-0.21479276257432867,325.4176,14.976,22.761195047712235,502.0,-13.88,18.039334799265742,-6.0,7.0,-77.0,3744.0,2.008,0.7602876665830895,-1.2135181150090288,318.84159999999997,17.0,23.632012186862124,452.0,-15.48,17.856136200197398,-12.0,10.0,-77.0,4250.0,1.808,0.5532255317612935,-0.9862529956119321,101.03342399999998,9.044,10.363590111539533,305.0,2.524,10.051538389719257,6.0,15.0,-26.0,2261.0,1.22,0.19030256215126773,-1.0434754141786613,9.465599999999998,8.08,8.645923895108028,325.0,8.08,3.0766215236847057,8.0,15.0,2.0,2020.0,1.3,-0.9533795997240606,-0.06950934774685326,MiddleExtension
3.9030560000000003,2.916,3.41701624227922,406.0,-2.788,1.9756153471766715,-3.0,2.0,-8.0,729.0,1.624,-0.44058452300980555,0.10272788140255204,3.482176,2.872,3.338263021393012,397.0,-2.768,1.8660589486937438,-3.0,2.0,-8.0,718.0,1.588,-0.3037673559147698,0.10402031175556337,3.2503040000000003,3.272,3.7288067796548536,401.0,-3.264,1.8028599501902527,-3.0,1.0,-9.0,818.0,1.604,-0.34947388987385963,-0.20467434143261876,762.6460159999999,18.272,33.11362257440282,548.0,-18.272,27.616046349903165,-6.0,0.0,-134.0,4568.0,2.192,5.127748305766561,-2.3371909690666803,1208.603456,28.48,39.20010204068352,834.0,-18.112,34.76497455773555,-12.5,37.0,-134.0,7120.0,3.336,1.2637468976216368,-1.0335252193768962,577.535424,19.904,24.763844612660613,783.0,5.976,24.031966711028875,13.0,37.0,-115.0,4976.0,3.132,4.376711124293807,-1.7796888841565046,85.4784,12.344,14.646774388922633,561.0,11.36,9.245452936443947,11.0,34.0,-15.0,3086.0,2.244,0.018826283727368054,0.05723072659129732,MiddleFlexion
10.427216,3.22,4.3886216514983385,356.0,-2.972,3.2291200039639283,-2.0,3.0,-16.0,805.0,1.424,2.978890679312583,-1.4486144354499515,8.775183999999998,3.54,4.5064398365006495,397.0,-3.396,2.962293705897509,-3.0,2.0,-14.0,885.0,1.588,1.447846003373762,-0.9828545613650224,14.7664,5.504,6.660330322138685,408.0,-5.44,3.8427073789191915,-5.0,2.0,-14.0,1376.0,1.632,-0.7626688856108852,-0.3682425118649117,40.05760000000001,12.088,13.637595095910422,399.0,-12.08,6.329107362021915,-12.5,1.0,-25.0,3022.0,1.596,-1.0770585994448878,0.23024731013769395,25.140816,13.572,14.468586662144993,384.0,-13.572,5.014061826503538,-14.0,-3.0,-25.0,3393.0,1.536,-1.0105463707465663,0.15774367106965698,15.6704,7.04,8.076632961822643,345.0,-7.04,3.958585605996162,-6.0,0.0,-17.0,1760.0,1.38,-0.17537780212337406,-0.710843554329278,4.1743999999999994,3.52,4.0009998750312405,336.0,-3.44,2.0431348462595413,-3.0,2.0,-9.0,880.0,1.344,0.0029990240757857833,-0.05119182310217653,RingExtension
2.787584,2.784,3.1711196760765747,345.0,-2.696,1.6696059415323126,-3.0,3.0,-7.0,696.0,1.38,0.17450703578680615,0.2349784554141671,3.311616000000001,2.136,2.610747019532915,351.0,-1.872,1.8197846026384554,-2.0,3.0,-7.0,534.0,1.404,-0.2697978485383459,-0.034806306941650995,3.3911040000000003,1.984,2.4819347291981715,376.0,-1.664,1.8414950447937677,-2.0,3.0,-7.0,496.0,1.504,-0.12498936836053165,-0.16528667311635345,52.509184,4.256,8.327784819506325,416.0,-4.104,7.246322101590572,-3.0,3.0,-55.0,1064.0,1.664,26.092940082036687,-4.840555746370619,3535.2784,48.696,76.81879978234494,887.0,-48.64,59.45820717108783,-16.0,3.0,-204.0,12174.0,3.548,0.1921968710279498,-1.1779609786063263,4506.485776,55.532,78.31446865043522,1033.0,-40.332,67.13036403893547,-16.5,39.0,-204.0,13883.0,4.132,-0.2972778537298386,-0.8770994792578942,453.692304,28.42,31.91269339933563,597.0,23.764,21.300054084438376,30.0,53.0,-83.0,7105.0,2.388,4.546290140945462,-1.7139955786999477,RingFlexion
2.425024,3.184,3.537230555109463,315.0,-3.176,1.5572488561562663,-3.0,1.0,-7.0,796.0,1.26,-0.3381070970509352,0.09688268100012719,31.089295999999994,6.068,8.228973204476972,364.0,-6.052,5.575777613929737,-4.0,1.0,-27.0,1517.0,1.456,2.643777599434719,-1.7309208008036734,35.545536,6.816,8.752599613829025,416.0,-6.408,5.962007715526708,-5.0,5.0,-27.0,1704.0,1.664,1.4147194082964525,-1.0503088330166928,12.4736,5.272,6.0239521910453435,396.0,-4.88,3.5317984087430583,-5.0,5.0,-14.0,1318.0,1.584,0.013775696631470158,0.3578265287088151,16.162,3.836,4.842726504769808,391.0,-2.7,4.020199000049624,-3.0,5.0,-14.0,959.0,1.564,-0.6692224214606215,-0.2820923953966733,4.427776,1.728,2.110923968313402,402.0,0.168,2.1042281245150205,0.0,5.0,-5.0,432.0,1.608,-0.5694343165440228,-0.14986939190677961,3.0647040000000003,1.528,1.8308467986153292,377.0,-0.536,1.7506296010292983,-1.0,4.0,-4.0,382.0,1.508,-0.6961092225242398,0.20764233835825233,ThumbExtension
1.8409760000000002,2.564,2.872629457483161,270.0,-2.532,1.3568257073036316,-3.0,1.0,-7.0,641.0,1.08,0.14344779339806246,-0.004497221633913416,3.2732159999999992,2.568,3.1086974764360717,283.0,-2.528,1.8092031395064512,-2.0,1.0,-10.0,642.0,1.132,2.4318089191104812,-1.162466975653001,22.932416,3.848,4.8,332.0,0.328,4.788780220473686,-1.0,14.0,-12.0,962.0,1.328,-0.23203678742322253,0.20891977997274425,47.281344,6.376,7.2244030895292655,369.0,-2.216,6.876143104968075,-3.0,14.0,-14.0,1594.0,1.476,-1.2759367669337198,0.20751040081639485,13.361344,5.272,6.369301374562205,350.0,-5.216,3.6553172228959827,-5.0,1.0,-14.0,1318.0,1.4,-0.9703733966925423,-0.2623215455899975,3.9610240000000005,2.432,2.9488980992906484,349.0,-2.176,1.9902321472632283,-2.0,3.0,-7.0,608.0,1.396,-0.3242661850025894,-0.08817658840888741,3.133504,2.36,2.7741665415039525,394.0,-2.136,1.770170613246079,-2.0,3.0,-6.0,590.0,1.576,-0.11692736131963599,0.18046052960045175,ThumbFlexion
4.810496,3.44,3.919183588453085,365.0,-3.248,2.1932842952978073,-3.0,3.0,-8.0,860.0,1.46,-0.17607558770018938,0.4172449612576189,14.390416000000002,4.868,6.1400325732035,359.0,-4.828,3.7934701791367758,-4.5,4.0,-29.0,1217.0,1.436,19.344668012170988,-3.621101685091111,54.125263999999994,9.388,11.902100654926423,389.0,-9.356,7.356987426929585,-6.5,4.0,-30.0,2347.0,1.556,0.5395677689128271,-1.292783875572746,37.814784,12.904,14.29433454204847,382.0,-12.904,6.149372650929524,-12.5,-3.0,-30.0,3226.0,1.528,-0.24554381671593717,-0.5337792977314516,34.450304,9.088,10.52463776098731,383.0,-8.736,5.869438133245805,-9.0,5.0,-20.0,2272.0,1.532,-0.783944393356403,0.25938645211742384,33.1664,5.128,5.775811631277461,375.0,0.44,5.759027695713922,3.0,9.0,-13.0,1282.0,1.5,-0.987589827277942,-0.5809278578813983,2.7671040000000002,4.664,4.951767361255979,336.0,4.664,1.6634614513116919,5.0,9.0,0.0,1166.0,1.344,0.003234315946505806,0.18144235924975652,IndexExtension
3.986704,3.124,3.633730865102698,380.0,-3.036,1.9966732331555908,-3.0,2.0,-9.0,781.0,1.52,0.04547653165735088,-0.251928736267062,4.326864,4.572,5.008392955829245,378.0,-4.556,2.080111535471115,-5.0,1.0,-10.0,1143.0,1.512,-0.1820240132128621,0.11922731996553175,2.6774560000000003,5.612,5.845682167206835,368.0,-5.612,1.636293372228831,-6.0,-2.0,-11.0,1403.0,1.472,0.12210297320498897,-0.2910156890597766,2.7490560000000004,5.712,5.947772692361402,356.0,-5.712,1.6580277440380786,-6.0,-2.0,-11.0,1428.0,1.424,-0.11269796684041289,-0.2946619087262265,3.6813440000000006,6.216,6.505382386916237,330.0,-6.216,1.9186828815622452,-6.0,-2.0,-11.0,1554.0,1.32,-0.4903106478815493,-0.20109651500528197,6.632384,5.32,5.888972745734183,356.0,-5.296,2.575341530748883,-5.0,1.0,-11.0,1330.0,1.424,-0.4416214556532245,0.12666326082579266,6.8004,2.756,3.450797009387831,417.0,-2.26,2.6077576574520878,-2.0,3.0,-9.0,689.0,1.668,-0.4636074148245273,-0.22342154971247688,IdleResting
3.7239839999999993,3.18,3.5637059362410923,325.0,-2.996,1.929762679709606,-3.0,5.0,-8.0,795.0,1.3,1.5478029305834742,0.6823038631896507,128.784336,9.156,14.417073211994174,369.0,-8.892,11.34831864198393,-4.0,8.0,-48.0,2289.0,1.476,2.1219243931670455,-1.6123123306445761,97.200784,15.652,18.288903739699652,333.0,-15.404,9.859045795613286,-16.0,8.0,-48.0,3913.0,1.332,1.7318330036994949,-0.6295464006829002,58.087936,9.256,11.799661012079966,251.0,-9.008,7.621544200488508,-10.0,3.0,-22.0,2314.0,1.004,-1.5091744559013283,-0.07325150375960178,23.083903999999997,3.576,4.894895300208167,260.0,0.936,4.804571156721482,0.0,12.0,-12.0,894.0,1.04,-0.09281481907622835,0.17008987269082865,20.729615999999996,7.644,8.664640788861359,266.0,7.372,4.552978805134063,10.0,14.0,-3.0,1911.0,1.064,-0.7323122614457351,-0.8631959476194362,3.123024,9.676,9.836056120214037,253.0,9.676,1.7672079673881056,10.0,14.0,3.0,2419.0,1.012,0.419694608612442,-0.6722932293562656,IndexExtension
3.123664,1.556,1.9585709075752147,324.0,0.844,1.767389034706281,1.0,5.0,-3.0,389.0,1.296,-0.5658460686410516,0.02421259146253707,1199.659584,21.272,40.148623886753576,481.0,20.304,34.63610232113307,1.0,106.0,-4.0,5318.0,1.924,0.24092222526628104,1.359808014450416,879.4976000000001,41.68,50.86098701362371,556.0,41.32,29.65632478915754,41.0,106.0,-4.0,10420.0,2.224,-0.6043570567478098,0.29391847427846585,422.11929599999996,24.904,32.01437177268984,494.0,24.552,20.545541998204865,21.0,76.0,-5.0,6226.0,1.976,-0.9238998407938745,0.47802791770541464,109.881856,9.016,10.587539846442137,444.0,-1.488,10.482454674359436,-2.0,26.0,-19.0,2254.0,1.776,-0.867559302015751,0.3408894667932893,27.9284,13.396,14.348658473878315,382.0,-13.34,5.28473272739502,-14.0,2.0,-22.0,3349.0,1.528,0.2600837591142193,0.7483920422266644,7.941584000000001,17.196,17.425383783435016,338.0,-17.196,2.8180816169869884,-17.0,-7.0,-22.0,4299.0,1.352,0.13233489762958062,0.5487561855927675,IndexFlexion
3.8276640000000004,3.228,3.7132196272237925,359.0,-3.156,1.9564416679267491,-3.0,2.0,-9.0,807.0,1.436,-0.3018629889097002,0.07146103039446393,17.162703999999998,4.116,5.783770396549296,377.0,-4.036,4.142789398460897,-4.0,2.0,-36.0,1029.0,1.508,27.661337591440997,-4.4509683050465405,76.11225599999999,11.168,14.108720707420641,405.0,-11.088,8.72423383455533,-12.0,2.0,-40.0,2792.0,1.62,-0.5245405362701328,-0.4879870137601246,23.381776,16.332,17.03279190267996,398.0,-16.332,4.83547060791398,-16.0,-4.0,-40.0,4083.0,1.592,2.3223677325718297,-0.7437975456022785,48.1956,8.868,11.067971810589327,370.0,-8.62,6.942305092690756,-7.0,4.0,-21.0,2217.0,1.48,-1.2858379729605156,-0.1789477085550641,12.7344,2.96,3.568753283711274,375.0,-0.04,3.568529108750551,0.0,7.0,-9.0,740.0,1.5,-0.6879638092453373,-0.29522226181233574,4.3904,2.352,2.8691462144686875,426.0,1.96,2.095328136593407,2.0,7.0,-4.0,588.0,1.704,0.04272959183673519,-0.12186628421959425,LittleExtension
29.672400000000003,9.14,10.64011278135716,341.0,-9.14,5.447237832149428,-7.0,-2.0,-26.0,2285.0,1.364,0.377938374576833,-1.0920249152867243,26.541584,9.804,11.075197515168748,351.0,-9.804,5.151852482360107,-9.0,-2.0,-26.0,2451.0,1.404,0.46875896017977015,-1.0261496219216375,24.543055999999996,5.076,5.904235767650205,327.0,-3.212,4.95409487192161,-5.0,7.0,-13.0,1269.0,1.308,-1.2060534628121282,0.2096159171321892,11.5444,3.46,4.080686216802268,353.0,2.26,3.397705107863247,3.0,9.0,-8.0,865.0,1.412,0.44403208264736493,-0.7685562207237313,20.884544,3.96,4.586065852122056,342.0,0.384,4.569961050162244,1.0,9.0,-10.0,990.0,1.368,-0.9916676386028493,-0.25619467745552776,11.974736,2.988,3.6937785531891323,335.0,-1.292,3.460453149516693,-1.0,6.0,-10.0,747.0,1.34,-0.6133311869865161,-0.19000028292602142,7.251536,2.3,2.841830396065184,332.0,-0.908,2.6928676165010415,-1.0,6.0,-8.0,575.0,1.328,-0.33844789433103006,0.05212142920426223,LittleFlexion
115.025216,8.96,10.73797001299594,749.0,0.528,10.724980932383982,2.0,22.0,-31.0,2240.0,2.996,-0.5267333749065033,-0.36595599311410437,288.58118399999995,12.064,18.41325609445543,754.0,-7.104,16.98767741629208,-3.0,16.0,-75.0,3016.0,3.016,3.2621620058051306,-1.72007591475656,1003.7371039999998,26.764,40.25622933162022,720.0,-24.836,31.681810301811982,-15.5,10.0,-124.0,6691.0,2.88,1.5037169861399295,-1.4318456759449179,1635.2893439999996,31.56,40.8502631570471,511.0,-5.784,40.438710958684126,9.5,34.0,-124.0,7890.0,2.044,0.8563337670833722,-1.2653492156766981,29.782544,22.116,22.779376637651872,385.0,22.116,5.457338545481671,21.0,34.0,5.0,5529.0,1.54,-0.5096880268565833,0.09404904719588922,35.032,14.6,15.754110574703988,403.0,14.6,5.918783658827208,17.0,26.0,1.0,3650.0,1.612,-0.8676433815172069,-0.41870715053491947,24.064704,6.48,8.114678058925074,385.0,6.464,4.905578864925117,5.0,20.0,-1.0,1620.0,1.54,-0.178278371051261,0.8856660768327416,MiddleExtension
3.673344,2.584,2.929846412356798,336.0,-2.216,1.9165969842405577,-2.0,3.0,-6.0,646.0,1.344,0.2852582100079837,0.6667885247181872,2.9095839999999997,3.228,3.6227061708065698,342.0,-3.196,1.7057502748057818,-3.0,1.0,-8.0,807.0,1.368,-0.2070754522288647,0.002088430080273753,818.9699840000001,17.512,33.54221221088436,527.0,-17.496,28.61765161574234,-5.0,1.0,-113.0,4378.0,2.108,2.7097621901635955,-1.9829820893785919,1433.912,27.336,38.58331245499795,693.0,-7.4,37.867030514683876,-2.0,42.0,-113.0,6834.0,2.772,0.4464219309222335,-1.0620112120937377,284.26689600000003,18.868,22.799736840586558,593.0,15.348,16.860216368718405,16.0,42.0,-66.0,4717.0,2.372,6.084468335364688,-1.6875051048721077,111.68622399999998,10.1,13.208936368988988,468.0,7.924,10.568170324138421,7.0,36.0,-22.0,2525.0,1.872,1.0880676659828437,0.3992250254725798,36.982464,4.864,6.20966987850401,462.0,1.256,6.081320909144657,2.0,11.0,-22.0,1216.0,1.848,1.5916518501005914,-1.1481758439513312,MiddleFlexion
39.038336,5.328,6.401249877953523,504.0,-1.392,6.248066580951263,-0.5,10.0,-16.0,1332.0,2.016,-0.9403668687379425,-0.3160402512738221,87.689296,7.348,9.423162950941686,493.0,-1.052,9.364256297218695,2.0,12.0,-37.0,1837.0,1.972,1.7024779950039424,-1.2322358135694553,781.907264,20.92,32.14529514563523,560.0,-15.856,27.962604742763148,-4.0,12.0,-102.0,5230.0,2.24,1.3748719597947394,-1.4262049650686024,616.1344,21.44,32.103956142506796,494.0,-20.36,24.822054709471576,-14.0,10.0,-102.0,5360.0,1.976,2.393088184412899,-1.6998332098063187,52.535504,6.108,8.109007337522886,345.0,-3.636,7.248137967781795,-1.0,9.0,-19.0,1527.0,1.38,-1.17794704037407,-0.476124842926016,9.637184000000001,3.512,4.389988610463585,317.0,3.104,3.1043814198645117,3.0,11.0,-5.0,878.0,1.268,-0.43778319892854967,0.21338931413857273,7.101376,5.456,6.050454528380492,301.0,5.432,2.6648407081850127,6.0,11.0,-1.0,1364.0,1.204,-0.619689449531017,-0.2749944517936849,RingExtension
2.7216,9.28,9.425497334358543,261.0,-9.28,1.6497272501841025,-9.0,-4.0,-13.0,2320.0,1.044,-0.3349539175523897,0.13098204934212007,3.303376,8.068,8.270187422301866,275.0,-8.068,1.8175191883443762,-8.0,-3.0,-13.0,2017.0,1.1,-0.29619274198678625,-0.038940512923995765,3.8401439999999996,6.684,6.965342776920601,297.0,-6.684,1.959628536228231,-6.5,-2.0,-11.0,1671.0,1.188,-0.4693112938054953,-0.12385107390732175,2.805504,6.136,6.360503124753576,284.0,-6.136,1.6749638802075704,-6.0,-2.0,-11.0,1534.0,1.136,0.002972465222451426,-0.28023108796442553,5133.7396,51.78,88.40196830387885,781.0,-51.78,71.65011932997739,-8.5,-3.0,-267.0,12945.0,3.124,1.3922612942279713,-1.592510196956523,5557.655376000001,60.516,92.09236667607148,1107.0,-54.068,74.549683942992,-17.5,33.0,-267.0,15129.0,4.428,0.7014261667278379,-1.2466319178349392,1166.128,29.16,36.1298768334463,683.0,11.8,34.148616370213304,21.5,46.0,-104.0,7290.0,2.732,3.3027464734402017,-1.864434166443652,RingFlexion
3.346,4.716,5.043411543786607,378.0,-4.7,1.8292074786639159,-5.0,2.0,-9.0,1179.0,1.512,0.20450608071873244,0.42702196681623705,3.328,3.808,4.215210552273754,366.0,-3.8,1.8242806801586207,-4.0,1.0,-8.0,952.0,1.464,-0.44834042159763277,0.1850044259475763,3.639616,2.976,3.4478979103215917,368.0,-2.872,1.9077777648353071,-3.0,2.0,-8.0,744.0,1.472,0.044042941046684714,-0.07254324231286738,6.7796,4.516,5.129912279951773,362.0,-4.42,2.6037665025881256,-4.5,2.0,-11.0,1129.0,1.448,-0.1715965679103233,-0.03464756606933662,76.333056,8.528,12.042591083317577,415.0,-8.288,8.736879076649739,-6.0,4.0,-44.0,2132.0,1.66,4.722782364431154,-2.1004374247547646,84.064,7.56,11.65778709704376,460.0,-7.2,9.168642211363686,-4.5,4.0,-44.0,1890.0,1.84,4.3627467331794545,-2.0753862028101024,7.126399999999999,2.68,3.4339481650135606,421.0,-2.16,2.669531794154173,-2.0,3.0,-11.0,670.0,1.684,-0.05378514774285925,-0.4099647781964402,ThumbExtension
8.780736000000001,3.896,4.367150100465977,347.0,-3.208,2.963230669387721,-4.0,9.0,-10.0,974.0,1.388,3.373398483049705,1.4260226936299478,69.243664,7.428,9.628499363867663,341.0,4.844,8.321277786494091,3.0,22.0,-10.0,1857.0,1.364,-1.0823492071706795,0.4249767992932487,86.01062399999999,8.112,9.957108013876319,330.0,3.624,9.27419128549762,2.0,22.0,-10.0,2028.0,1.32,-1.2056799384020322,0.3822002949304007,14.870399999999998,7.312,8.13240431852721,345.0,-7.16,3.856215761598409,-8.0,4.0,-15.0,1828.0,1.38,-0.2528850603407533,0.5072223142956492,3.3678239999999997,9.724,9.895655612439228,354.0,-9.724,1.8351632080008577,-10.0,-5.0,-15.0,2431.0,1.416,0.030466739902980766,-0.13034252491701573,4.676863999999999,7.944,8.23310391043378,306.0,-7.944,2.162605835560424,-8.0,-2.0,-13.0,1986.0,1.224,-0.5057519536683821,0.0013951882832493516,2.896384,5.704,5.952478475391574,271.0,-5.704,1.701876611273567,-6.0,0.0,-10.0,1426.0,1.084,-0.008197559014849087,0.15135586391312164,ThumbFlexion
3.2004,1.644,2.079422996891205,413.0,-1.06,1.7889661819050688,-1.0,5.0,-6.0,411.0,1.652,-0.1965868814579661,0.03148911306988149,2.756304,1.996,2.422395508582362,384.0,-1.764,1.660212034650996,-2.0,2.0,-6.0,499.0,1.536,-0.3510622756908912,0.07853773120626274,4.250064,3.14,3.6764112936394917,374.0,-3.044,2.061568335030396,-3.0,2.0,-9.0,785.0,1.496,-0.16586573248100445,-0.09437634010730532,3.1444,4.076,4.430349873317005,353.0,-4.06,1.7732456118654292,-4.0,1.0,-9.0,1019.0,1.412,0.10615324742790833,0.20269904177850248,2.7772960000000007,4.06,4.381324000801584,364.0,-4.052,1.6665221270658246,-4.0,1.0,-8.0,1015.0,1.456,-0.0221991634666443,0.3261149757372284,3.193344,4.224,4.579082877607698,376.0,-4.216,1.7869930050226834,-4.0,1.0,-9.0,1056.0,1.504,-0.18259978349965555,0.1919508974298181,3.2492960000000006,4.068,4.434861891874425,379.0,-4.052,1.8025803726879976,-4.0,1.0,-9.0,1017.0,1.516,-0.20476249613204622,0.08588368087617629,IdleResting
4.804944,2.34,2.9113570718824584,367.0,-1.916,2.192018248099226,-2.0,4.0,-8.0,585.0,1.468,0.03507592431719164,0.0023319582118577773,4.235584000000001,2.584,3.0893364983439406,369.0,-2.304,2.058053449257332,-2.0,4.0,-8.0,646.0,1.476,0.3460993091703002,0.09761860555926052,26.980544000000002,4.608,6.797058187186572,386.0,-4.384,5.194279930847008,-3.0,4.0,-20.0,1152.0,1.544,1.0222740294194947,-1.4242285122820857,35.469136,8.34,10.222132849850857,374.0,-8.308,5.9555970313646975,-7.0,1.0,-25.0,2085.0,1.496,-0.5856295890039465,-0.5430854232861082,38.778,7.508,9.147021373102831,348.0,-6.7,6.2271984069884905,-7.0,5.0,-25.0,1877.0,1.392,-0.049359439462935306,-0.3004294798009378,31.099263999999998,4.72,5.578530272392541,337.0,0.144,5.576671408645125,3.0,8.0,-15.0,1180.0,1.348,-0.19285012817309166,-1.0207085501876036,1.9002240000000001,3.584,3.832492661441115,347.0,3.576,1.3784861261543404,3.0,8.0,-1.0,896.0,1.388,-0.08970834814649686,0.07532545999254894,IndexExtension
4.406416,3.844,4.365775990588615,295.0,-3.828,2.0991464932205184,-4.0,1.0,-9.0,961.0,1.18,-0.7632692962412944,-0.020195124992341072,2.856064,1.776,2.2306949589757896,297.0,-1.456,1.6899893490788633,-1.0,3.0,-5.0,444.0,1.188,-0.49551932102978435,-0.06590102200197205,3.0497439999999996,1.428,1.820988742414406,304.0,0.516,1.7463516255324985,1.0,5.0,-4.0,357.0,1.216,-0.2045366497440173,-0.08982322747730236,3.3075360000000003,2.956,3.4298688021555575,283.0,2.908,1.8186632453535756,3.0,7.0,-2.0,739.0,1.132,-0.7134640806399428,-0.07486606046680254,139.380304,6.244,13.351704011099107,333.0,6.236,11.805943587871322,4.0,96.0,-1.0,1561.0,1.332,31.806340841269225,5.386967715086562,1207.6195999999998,36.188,50.16584495451063,470.0,36.18,34.75082157302184,37.0,124.0,-1.0,9047.0,1.88,-0.4033820045454477,0.7061141804562211,873.2484,41.572,50.91345598169505,450.0,41.46,29.550776639540288,36.5,124.0,-4.0,10393.0,1.8,0.5241362439699961,0.9143241186681083,IndexFlexion
2.814016,3.296,3.676955262170047,345.0,-3.272,1.677502906107766,-3.0,1.0,-9.0,824.0,1.38,0.11760482797131466,-0.03466552315884371,3.8940959999999993,4.164,4.5934736311423405,352.0,-4.148,1.973346396353159,-4.0,1.0,-10.0,1041.0,1.408,0.30690735112269607,-0.14988542211979855,3.0627359999999997,4.708,5.0227482517044395,341.0,-4.708,1.7500674272724464,-5.0,0.0,-10.0,1177.0,1.364,0.23075479583927994,-0.17310723395966435,34.481984000000004,6.544,8.762648001603168,379.0,-6.504,5.872136238201563,-5.0,2.0,-31.0,1636.0,1.516,4.0673551386833715,-2.086256171910014,49.8384,12.8,14.582729511308917,388.0,-12.76,7.059631718439709,-14.0,2.0,-31.0,3200.0,1.552,-0.9893458528038703,0.13739888877980647,33.86617600000001,12.776,14.0316784455745,377.0,-12.768,5.81946526753103,-14.0,1.0,-23.0,3194.0,1.508,-0.7838748347326239,0.47907043012328887,38.311935999999996,5.544,7.365324161230109,403.0,-3.992,6.189663641911408,-3.0,7.0,-19.0,1386.0,1.612,-0.6896291881782393,-0.5412523021689153,LittleExtension
4.447743999999999,4.104,4.536077600747148,372.0,-4.016,2.108967519901622,-4.0,3.0,-9.0,1026.0,1.488,0.3776297003408353,0.4406642592201605,5.002896000000001,3.468,4.026412795529042,382.0,-3.348,2.2367154490457657,-3.0,2.0,-9.0,867.0,1.528,-0.39986827128551905,0.012615453530976435,133.41262400000002,11.988,16.566592890513125,410.0,-11.876,11.55043826008347,-6.0,2.0,-41.0,2997.0,1.64,-0.5163127901945925,-0.7824474561578174,95.664784,14.404,17.410916116046277,377.0,-14.404,9.780837591944772,-12.0,0.0,-41.0,3601.0,1.508,0.028100286412168884,-0.8965359999738309,69.92960000000001,7.36,8.362774659166657,376.0,-0.08,8.362392002292168,-1.5,17.0,-16.0,1840.0,1.504,-1.133084472197969,0.15230310504047792,25.218576000000002,7.188,8.508113774509601,375.0,6.868,5.021810032249329,8.0,17.0,-5.0,1797.0,1.5,-1.013940811157013,-0.17838460980162585,22.386624000000005,4.952,6.444842899559306,361.0,4.376,4.731450517547447,3.5,16.0,-5.0,1238.0,1.444,-0.5669510797058863,0.4797408731369198,LittleFlexion
533.5203999999999,21.244,29.94668596021937,533.0,-19.06,23.098060524641454,-16.0,12.0,-91.0,5311.0,2.132,1.13673660987339,-1.2442572136930217,565.8540160000001,18.672,28.517082599733094,400.0,-15.728,23.78768622628103,-10.0,10.0,-91.0,4668.0,1.6,1.4435592151878964,-1.4414622043661747,19.255376000000002,4.42,5.277499407863538,321.0,2.932,4.388094802986827,4.0,12.0,-14.0,1105.0,1.284,1.4728550524590815,-0.8524538404253681,21.378704000000003,8.044,9.271245870971171,337.0,8.036,4.623711063637087,9.0,19.0,-1.0,2011.0,1.348,-1.1678672662300025,0.025807591345725342,21.745103999999998,7.868,9.118552516710094,382.0,7.836,4.663164590704471,8.0,19.0,-2.0,1967.0,1.528,-1.0714144699915498,0.07150819206850219,15.741183999999999,3.384,4.067431622043571,400.0,0.896,3.9675160995262515,1.0,10.0,-8.0,846.0,1.6,-0.7697407168818335,0.07968139759649387,7.1716,4.068,4.665190242637485,384.0,-3.82,2.6779843166082955,-4.0,4.0,-11.0,1017.0,1.536,0.03427309649369947,0.367266088086064,MiddleExtension
3.683344,5.284,5.621743501797285,377.0,-5.284,1.9192040016631895,-5.0,-1.0,-10.0,1321.0,1.508,-0.4539862668380352,0.026752443517266605,4.885903999999999,4.46,4.956208228071133,346.0,-4.436,2.2104081071150636,-4.0,2.0,-10.0,1115.0,1.384,-0.27453868499792344,-0.05207073601443613,3.556816,2.7,3.1893573020281063,336.0,-2.572,1.8859522793538548,-3.0,2.0,-7.0,675.0,1.344,-0.35238554026407387,-0.04194321928734051,30.423055999999995,3.38,6.382789358893179,407.0,-3.212,5.515709927108205,-2.0,2.0,-45.0,845.0,1.628,27.023273448628846,-4.821492828127762,1239.6877439999998,22.36,38.27751298086123,603.0,-15.016,35.209199706894786,-3.0,28.0,-120.0,5590.0,2.412,0.9737698732589881,-1.4410812708343603,1676.1124000000004,30.572,41.014192665466425,642.0,-2.46,40.9403517327343,16.0,33.0,-120.0,7643.0,2.568,0.800506549718448,-1.4887227611599012,65.46233600000001,17.52,19.18186643681996,442.0,17.392,8.090879803828507,18.0,33.0,-4.0,4380.0,1.768,-0.4124226002958573,-0.38026006781025057,MiddleFlexion
13.9764,6.388,7.3601630416723784,419.0,-6.34,3.7385023739460164,-6.0,2.0,-16.0,1597.0,1.676,-0.15785188965047192,-0.5619964752021981,39.028943999999996,5.684,6.585742175336049,349.0,-2.084,6.2473149432376145,-2.5,8.0,-15.0,1421.0,1.396,-1.1598902783812062,-0.17153254937979465,53.875024,4.876,7.371024352150791,357.0,-0.676,7.339960762837905,1.0,8.0,-31.0,1219.0,1.428,4.186065956088548,-1.9849165980144823,71.88878400000002,10.244,12.80515521186682,387.0,-9.596,8.478725375904094,-11.0,4.0,-31.0,2561.0,1.548,-1.0345208365727203,-0.09837023941054734,18.943936,17.008,17.556081567365766,359.0,-17.008,4.352463210642911,-17.0,-8.0,-25.0,4252.0,1.436,-1.1685577810107493,0.13261717044094315,61.448,12.04,14.33345736380445,357.0,-12.0,7.838877470658666,-11.0,2.0,-25.0,3010.0,1.428,-1.485105646636319,-0.021474689034304315,21.998464000000002,3.88,4.855512331361131,366.0,-1.256,4.690252018815194,0.0,7.0,-13.0,970.0,1.464,-0.5520821420924427,-0.49685236590520243,RingExtension
3.3112960000000005,3.592,3.9909898521544753,302.0,-3.552,1.819696678020818,-4.0,2.0,-8.0,898.0,1.208,-0.059203107311386116,0.15329756122615276,51.363024,7.324,10.247145944115367,346.0,-7.324,7.166800122788413,-5.0,0.0,-37.0,1831.0,1.384,6.184960247879534,-2.5298765469285214,2835.234704,47.076,70.9989577388288,937.0,-46.964,53.246922014328675,-24.5,5.0,-214.0,11769.0,3.748,0.634540259654615,-1.2674739036839002,4159.018256,53.844,72.7129424518084,1040.0,-33.588,64.49045089003488,-22.0,42.0,-214.0,13461.0,4.16,-0.2347089856928437,-0.8484049714907907,306.84462399999995,24.364,26.679955022450844,666.0,20.124,17.516981018428943,24.0,43.0,-38.0,6091.0,2.664,1.6813574437903105,-1.3785309557918528,181.493904,26.34,27.903619836859875,613.0,24.436,13.471967339627868,28.0,43.0,-27.0,6585.0,2.452,3.403344643397088,-1.818970751320893,235.615824,22.412,24.641022706048545,569.0,19.276,15.349782539176248,25.0,37.0,-31.0,5603.0,2.276,1.1127680619721056,-1.3179977983506248,RingFlexion
3.5447040000000003,2.624,3.100967590930289,365.0,-2.464,1.882738431115698,-2.0,3.0,-7.0,656.0,1.46,-0.36276142997723815,0.10221019160703929,3.4749440000000003,2.592,3.051556979641704,389.0,-2.416,1.8641201678003487,-2.0,3.0,-7.0,648.0,1.556,0.1494875305636021,0.09397165171134207,4.4483999999999995,2.044,2.6115129714401193,366.0,-1.54,2.1091230405075945,-1.0,3.0,-7.0,511.0,1.464,0.010726795207835593,-0.3189146134388015,4.153296,1.764,2.2476654555338076,392.0,-0.948,2.037963689568585,-1.0,3.0,-7.0,441.0,1.568,-0.23730952964527852,-0.2632307004730803,126.99406399999997,7.412,13.243111416883874,461.0,-6.956,11.269164299095118,-3.0,3.0,-46.0,1853.0,1.844,2.500913030012807,-1.8663570857369276,505.22465600000004,15.604,22.58344526417526,457.0,2.188,22.477203028846805,-1.0,49.0,-46.0,3901.0,1.828,-0.1262023785654791,0.43137043114903434,413.99841599999996,17.436,23.04873098459002,383.0,10.828,20.346951024662147,3.5,49.0,-18.0,4359.0,1.532,-1.19529036235105,0.417672013883229,ThumbExtension
172.36110399999998,12.692,14.956069002247883,339.0,7.164,13.128636791380893,10.0,30.0,-17.0,3173.0,1.356,-1.3991338653208136,0.011075301064179146,114.112576,10.984,14.208166665689138,355.0,9.368,10.682348805389196,9.0,30.0,-7.0,2746.0,1.42,-1.3032346159917743,0.2330534301725168,31.259600000000006,5.708,7.004855458894209,369.0,-4.22,5.591028527918634,-4.0,10.0,-15.0,1427.0,1.476,-0.6674779470612444,0.05972298447176141,15.150096000000001,10.876,11.528920157586311,322.0,-10.852,3.89231242322607,-12.0,2.0,-17.0,2719.0,1.288,0.26140873664482456,1.0247114757146394,5.135744,12.016,12.227837094106219,269.0,-12.016,2.266217994809855,-13.0,-6.0,-17.0,3004.0,1.076,-0.34997199521299294,0.4734646037548793,9.4244,8.34,8.887069258197553,289.0,-8.34,3.069918565695188,-8.0,-1.0,-15.0,2085.0,1.156,-0.6244440405242955,-0.0555716919148438,8.560256,4.136,4.885079323818601,312.0,-3.912,2.925791516837794,-4.0,4.0,-10.0,1034.0,1.248,-0.47902356722822637,0.09053158196993667,ThumbFlexion
2.7658240000000003,3.264,3.627671429443411,301.0,-3.224,1.6630766669038444,-3.0,2.0,-8.0,816.0,1.204,-0.04528735273599116,0.2169394459956326,2.653696,3.072,3.456009259246856,324.0,-3.048,1.6290168814349346,-3.0,1.0,-7.0,768.0,1.296,-0.23066843625561795,0.09952607397006002,5.397776,4.348,4.915689168366934,335.0,-4.332,2.32331142983458,-4.0,1.0,-11.0,1087.0,1.34,-0.4311312679271424,-0.270416864069029,3.757056,5.288,5.632051136131489,333.0,-5.288,1.9383126682761995,-5.0,-1.0,-11.0,1322.0,1.332,-0.295198586065724,-0.04861284900271428,2.8096639999999997,5.344,5.600714240166159,346.0,-5.344,1.676205238030236,-5.0,-1.0,-10.0,1336.0,1.384,-0.049359551985499905,0.0009089638344881436,3.479616,4.872,5.216895628628198,301.0,-4.872,1.8653728849750122,-5.0,0.0,-10.0,1218.0,1.204,-0.17827928844671703,0.027998216944600727,3.1984,4.64,4.972725610769209,299.0,-4.64,1.7884071124886525,-5.0,0.0,-10.0,1160.0,1.196,-0.14978875130411629,0.05088634579669975,IdleResting
3.9696000000000002,3.024,3.5349681752457123,296.0,-2.92,1.9923855048659636,-3.0,2.0,-8.0,756.0,1.184,-0.4288320376335366,-0.06489034259534153,4.148096000000001,2.84,3.340658617698013,324.0,-2.648,2.0366875067128,-3.0,3.0,-7.0,710.0,1.296,-0.13652045384910183,0.15718956235577167,3.7183999999999995,1.952,2.4066574330386117,328.0,-1.44,1.9283153269110318,-1.0,3.0,-7.0,488.0,1.312,-0.27835820784983945,0.06938002981349763,15.435599999999999,2.564,4.399545431064442,352.0,-1.98,3.9288166157254016,-1.0,3.0,-24.0,641.0,1.408,12.621482731036933,-3.1125133409144525,148.468544,11.872,16.834488409215172,387.0,-11.616,12.184766883285047,-7.5,3.0,-45.0,2968.0,1.548,0.214291409085281,-1.0764099589881457,90.11840000000001,16.04,18.63866948041088,348.0,-16.04,9.493071157428455,-14.0,-2.0,-45.0,4010.0,1.392,1.1691273502554864,-1.3781147856088423,74.52505599999999,7.992,9.639087093703429,317.0,-4.288,8.632789583906236,-4.0,10.0,-26.0,1998.0,1.268,-1.1280808224559442,-0.20170765947388547,IndexExtension
2.865344,4.216,4.5431266766402185,279.0,-4.216,1.692732701875875,-4.0,-1.0,-9.0,1054.0,1.116,-0.5958631545459272,-0.2484771994778468,8.550415999999998,3.044,3.448477925114209,272.0,-1.828,2.924109437076526,-3.0,12.0,-6.0,761.0,1.088,3.7529461749500257,1.8489019225290177,623.241344,23.008,32.7621733100843,395.0,21.216,24.96480210215975,14.0,83.0,-5.0,5752.0,1.58,-0.7301268318579646,0.6679422112392166,361.82670399999995,28.964,34.651695485214,473.0,28.964,19.021742927502725,23.0,83.0,4.0,7241.0,1.892,0.2160586175529211,0.9610347530210779,108.71560000000001,9.692,12.120561043120075,396.0,6.18,10.426677323097708,5.0,36.0,-9.0,2423.0,1.584,-0.7892829982970397,0.403954639194926,28.467983999999998,7.004,8.026207074328447,385.0,-5.996,5.3355397102823625,-6.0,11.0,-16.0,1751.0,1.54,0.1005950728194569,0.5917253650939593,9.758400000000002,10.016,10.43839068055991,379.0,-9.96,3.1238437861071096,-10.0,4.0,-16.0,2504.0,1.516,2.5485093594645543,1.110000062505309,IndexFlexion
3.482,3.196,3.61828688746484,392.0,-3.1,1.8660117898877275,-3.0,2.0,-8.0,799.0,1.568,0.05425853020753868,0.2046340295619551,3.4756000000000005,3.276,3.720752612039666,370.0,-3.22,1.8642961138188323,-3.0,1.0,-8.0,819.0,1.48,-0.2754089834184086,0.129105310293805,4.7396,2.868,3.375796202379522,374.0,-2.58,2.1770622407271687,-3.0,4.0,-8.0,717.0,1.496,0.040046595554615205,0.2479081020061538,18.5396,4.484,6.000999916680553,400.0,-4.18,4.305763579204042,-3.0,4.0,-20.0,1121.0,1.6,1.3936986129725515,-1.1596405737762023,16.066896,4.764,6.140684000988815,421.0,-4.652,4.008353277843658,-4.0,2.0,-20.0,1191.0,1.684,1.797425931918168,-1.3107085492427126,6.833295999999999,2.852,3.3232514199199557,383.0,-2.052,2.614057382690747,-2.0,6.0,-8.0,713.0,1.532,0.044016223787469055,0.5565885861610965,9.271056,2.508,3.0522123124055445,413.0,0.212,3.0448408825421405,0.0,9.0,-7.0,627.0,1.652,-0.4893663620455251,0.018494536973957497,LittleExtension
3.3904640000000006,2.416,2.9120439557122073,392.0,-2.256,1.8413212647444228,-2.0,3.0,-8.0,604.0,1.568,-0.0924615966692941,-0.02872791022574643,3.8402559999999997,1.752,2.2414281161795038,371.0,-1.088,1.9596571128643907,-1.0,5.0,-6.0,438.0,1.484,-0.15768872302497927,-0.09374566167919803,141.308944,7.716,13.838063448329756,402.0,-7.084,11.88734385807023,-2.0,5.0,-50.0,1929.0,1.608,1.4078367349647527,-1.597597757186068,127.198336,13.48,17.5083979849671,448.0,-13.392,11.278223973658264,-10.0,5.0,-50.0,3370.0,1.792,-0.1500118986266208,-0.8363714663540875,100.7344,9.216,11.713923339342802,404.0,-6.04,10.036652828508117,-6.0,13.0,-34.0,2304.0,1.616,0.42488036829395437,-0.5656056703121264,52.742656000000004,8.648,9.622057991926676,351.0,6.312,7.262413923758409,9.0,17.0,-11.0,2162.0,1.404,-0.6709505495516916,-0.7506428793455584,21.298176,7.776,9.035485598461214,387.0,7.768,4.614994691221216,8.0,17.0,-1.0,1944.0,1.548,-1.287084843970852,0.008424147924975589,LittleFlexion
85.621696,7.216,11.631680875952538,438.0,-7.048,9.253199230536431,-4.0,3.0,-47.0,1804.0,1.752,4.758773989479839,-2.255529003637395,71.68737599999999,10.956,13.82736417398486,412.0,-10.932,8.4668397882563,-9.0,1.0,-47.0,2739.0,1.648,3.6511099814947032,-1.750380361188088,9.412495999999999,9.252,9.747409912381853,351.0,-9.252,3.0679791394336435,-9.0,-3.0,-23.0,2313.0,1.404,2.4154402254075196,-1.039159028637545,5.440336,6.116,6.538195469699572,348.0,-6.108,2.3324527862316957,-6.0,1.0,-12.0,1529.0,1.392,-0.025942903718807475,0.28180601028757113,6.507599999999998,3.348,4.076763422127902,349.0,-3.18,2.5509998039984243,-3.0,3.0,-9.0,837.0,1.396,-0.818291410748075,-0.0763853191457947,2.658496,1.6,2.0532900428336958,307.0,-1.248,1.6304894970529555,-1.0,3.0,-6.0,400.0,1.228,-0.47973363249050616,-0.11231033781112676,2.306704,1.452,1.8384776310850235,289.0,-1.036,1.518783723905415,-1.0,4.0,-5.0,363.0,1.156,0.14449855196064076,0.1773058850901982,MiddleExtension
4.101503999999999,4.168,4.605214435832495,311.0,-4.136,2.0252170254074007,-4.0,1.0,-9.0,1042.0,1.244,-0.09689941176933337,0.17094324618357615,4.289936,2.724,3.24037034920393,350.0,-2.492,2.0712160679175895,-2.5,3.0,-7.0,681.0,1.4,-0.7762767845482417,0.18446484193540208,5.484304,3.436,3.9944962135418276,356.0,-3.236,2.341859090551778,-4.0,3.0,-8.0,859.0,1.424,-0.5720795442062023,0.2700229961274132,758.156736,16.208,31.95083723472673,420.0,-16.208,27.53464610268307,-5.0,0.0,-117.0,4052.0,1.68,4.0988407006142245,-2.3155194337515916,952.5136000000001,21.0,36.38999862599613,598.0,-19.28,30.862819054648913,-6.0,11.0,-117.0,5250.0,2.392,1.7790213968179796,-1.700066309639825,433.99302400000005,14.616,20.94583490816253,514.0,2.176,20.832499225969027,7.5,24.0,-110.0,3654.0,2.056,8.71206167942162,-2.604745795511979,22.121216,13.536,14.322290319638126,393.0,13.528,4.703319678695038,14.0,24.0,-1.0,3384.0,1.572,-0.322621022774773,-0.3580361023905271,MiddleFlexion
29.648,5.648,7.529143377569589,370.0,-5.2,5.444997704315402,-5.0,4.0,-28.0,1412.0,1.48,4.925955605312079,-1.7169395276114106,4.809424,6.524,6.882732015704229,329.0,-6.524,2.1930398993178395,-6.5,0.0,-12.0,1631.0,1.316,-0.043984551404102845,0.00040696375352326905,6.5272960000000015,5.592,6.111628260946505,347.0,-5.552,2.5548573345688017,-6.0,3.0,-12.0,1398.0,1.388,0.12873374538137616,0.1790203452183952,5.288144,3.436,4.035343851519967,380.0,-3.316,2.299596486342767,-3.0,3.0,-12.0,859.0,1.52,0.32057246872928635,-0.17953764334644104,3.9583999999999997,3.152,3.63318042491699,352.0,-3.04,1.989572818471342,-3.0,2.0,-8.0,788.0,1.408,-0.47565105553700215,0.16495052617280886,3.7588639999999995,3.532,3.9522145690739006,331.0,-3.444,1.938778997204168,-4.0,1.0,-8.0,883.0,1.324,-0.30447091725977415,0.39112089848167975,3.9284,3.62,4.057092555020159,341.0,-3.54,1.9820191724602463,-4.0,1.0,-8.0,905.0,1.364,-0.19209283502875785,0.2534588239243084,RingExtension
2.446736,1.364,1.7169740825067803,300.0,-0.708,1.564204590199121,-1.0,3.0,-5.0,341.0,1.2,-0.20138827157130823,0.005163617865656821,79.93894399999999,3.848,9.632445172436748,377.0,-3.584,8.940858124363679,-2.0,3.0,-71.0,962.0,1.508,32.76344610542651,-5.507819298208898,3278.593216,43.616,71.89164068234916,886.0,-43.472,57.25900117885397,-12.5,4.0,-204.0,10904.0,3.544,0.8489552107989087,-1.4222560260221868,4566.867663999999,52.564,74.00170268311399,981.0,-30.156,67.57860359610872,-7.5,51.0,-204.0,13141.0,3.924,0.10746652876396379,-1.0290488394295902,301.322816,30.864,33.86006497335762,647.0,29.072,17.358652482263707,31.5,53.0,-35.0,7716.0,2.588,1.4422411464662384,-1.1690603651620635,104.93190399999999,30.936,32.58785049677257,549.0,30.936,10.243627482488808,30.0,53.0,10.0,7734.0,2.196,-0.8585521075497025,0.21675579106547377,52.311696,19.548,20.84312836404363,464.0,19.548,7.23268248992032,19.0,39.0,6.0,4887.0,1.856,-0.6535867501779564,0.3364865786514829,RingFlexion
3.2432639999999995,2.152,2.5861167800391383,412.0,-1.856,1.8009064384359337,-2.0,3.0,-7.0,538.0,1.648,-0.16346185459399143,0.22803734814981444,3.516416,1.568,1.9919839356781972,382.0,-0.672,1.8752109214699022,-1.0,4.0,-6.0,392.0,1.528,-0.3098235893234569,-0.09454638239504058,23.427456000000006,2.672,5.195382565317014,359.0,-1.888,4.84019173173956,-1.0,4.0,-28.0,668.0,1.436,9.51944343430105,-2.961522388857132,76.478336,5.736,9.884938037236248,377.0,-4.608,8.745189306127113,-1.0,6.0,-30.0,1434.0,1.508,0.9353967837522545,-1.4781292666373926,132.033984,9.128,11.760272105695513,351.0,2.504,11.490604161661823,4.0,18.0,-30.0,2282.0,1.404,0.8373396106548419,-1.1841170065862197,61.435663999999996,7.276,8.72994845345607,330.0,3.844,7.838090583809299,3.0,18.0,-9.0,1819.0,1.32,-1.3394164903788928,0.11735657833589604,10.036304,5.212,5.7211886876767135,317.0,-4.764,3.168012626237465,-6.0,5.0,-11.0,1303.0,1.268,0.3481845537628496,1.022205115884204,ThumbExtension
2.264,1.808,2.196360626126775,342.0,-1.6,1.504659429904322,-2.0,2.0,-6.0,452.0,1.368,0.29302401078799933,-0.008454303880145038,10.344656,2.468,3.2218007387174024,344.0,0.188,3.216310930242908,-1.0,14.0,-6.0,617.0,1.376,1.472964689181567,0.9964936849251615,22.5156,3.908,4.808742039244775,364.0,0.78,4.745060589707997,1.0,14.0,-12.0,977.0,1.456,-0.2674788679526716,-0.05426030227150308,21.087695999999998,4.668,5.251666402200353,340.0,-2.548,4.592134144382109,-4.0,12.0,-12.0,1167.0,1.36,0.712107183628294,1.0888829991040179,3.145344,4.216,4.573838650411709,298.0,-4.216,1.7735117704712309,-4.0,0.0,-10.0,1054.0,1.192,0.02258712865306034,-0.1706144535286616,2.9000960000000005,4.352,4.673328578219169,337.0,-4.352,1.7029668229299126,-4.0,0.0,-8.0,1088.0,1.348,-0.307481765352593,0.11057730684583422,2.464464,4.756,5.008392955829245,369.0,-4.756,1.5698611403560507,-5.0,-1.0,-8.0,1189.0,1.476,-0.3954609527823867,0.045875343272263926,ThumbFlexion
4.056256,3.912,4.4,358.0,-3.912,2.0140148956748063,-4.0,0.0,-10.0,978.0,1.432,-0.5526135576228888,-0.05282336140815189,3.078144,5.184,5.472842040475863,306.0,-5.184,1.7544640207197182,-5.0,-1.0,-10.0,1296.0,1.224,-0.27734871709093456,0.15283141881639,3.8355840000000003,4.696,5.088025157170511,329.0,-4.696,1.9584647048134414,-5.0,0.0,-10.0,1174.0,1.316,-0.22041250894169018,0.14934430917916972,4.155264,3.216,3.746998799039039,365.0,-3.144,2.038446467288263,-3.0,2.0,-9.0,804.0,1.46,-0.20253197741007734,-0.06823148091865765,3.771664,2.932,3.443835071544513,378.0,-2.844,1.9420772384228182,-3.0,2.0,-8.0,733.0,1.512,-0.48458335578711553,0.022261827467984222,3.7292959999999997,4.076,4.488652359004872,373.0,-4.052,1.9311385242907873,-4.0,1.0,-9.0,1019.0,1.492,-0.05691400130218005,0.20021568940399667,2.7136000000000005,4.528,4.810821135731405,343.0,-4.52,1.6473008225579202,-5.0,1.0,-9.0,1132.0,1.372,0.28978909865610447,0.1587932119605596,IdleResting
48.85601599999999,8.276,10.796110410698846,349.0,-8.228,6.989707862278651,-7.0,2.0,-29.0,2069.0,1.396,0.3646053376484457,-1.0728027351567828,43.797903999999996,9.924,11.52545009967073,337.0,-9.436,6.617998488969304,-10.0,5.0,-29.0,2481.0,1.348,0.34397254560532,-0.2174934937002567,37.152,4.792,6.6266130111845225,372.0,-2.6,6.095244047616141,0.0,5.0,-16.0,1198.0,1.488,-1.0743734239617906,-0.7263679922069917,1.9115039999999999,1.748,2.1419617176784462,363.0,1.636,1.3825715171375403,2.0,5.0,-2.0,437.0,1.452,-0.14592323460814605,0.17087651445491842,2.4839839999999995,1.524,1.8686893802876925,329.0,1.004,1.576065988466219,1.0,5.0,-3.0,381.0,1.316,-0.31548709662833563,-0.25793813820129124,4.455056,2.06,2.433926868252208,311.0,-1.212,2.110700357701206,-2.0,3.0,-6.0,515.0,1.244,-0.8350353328505227,0.26192366620210644,2.520656,3.812,4.1294067370507355,341.0,-3.812,1.5876573937723466,-4.0,0.0,-8.0,953.0,1.364,-0.4249009534261723,-0.1240135752200906,IndexExtension
2.105296,3.068,3.37934904974316,348.0,-3.052,1.4509638176053874,-3.0,1.0,-6.0,767.0,1.392,-0.3038107124919951,0.20838872881938877,1.9536640000000003,2.4,2.72910241654651,370.0,-2.344,1.3977353111372697,-2.0,2.0,-6.0,600.0,1.48,-0.03459705636226795,0.09993346631027629,647.837696,15.008,28.11917495233457,458.0,11.952,25.452655971430566,-1.5,77.0,-5.0,3752.0,1.832,0.5949316700578722,1.4987303036959194,514.9013759999999,26.328,34.08354441662428,546.0,25.432,22.691438385435152,24.0,77.0,-5.0,6582.0,2.184,-0.5731987328465067,0.568973889142104,270.81838400000004,15.324,19.90849065097603,493.0,11.204,16.456560515490473,9.0,52.0,-14.0,3831.0,1.972,-0.8730180477264313,0.482716757473748,43.817744,8.212,9.2660671268883,448.0,-6.484,6.6194972618772185,-8.0,15.0,-17.0,2053.0,1.792,0.30007376777066996,0.8752266402017412,13.177599999999998,11.56,12.078410491451265,414.0,-11.52,3.6300964174522967,-12.0,5.0,-18.0,2890.0,1.656,1.7819696561914071,1.1001277197009067,IndexFlexion
66.362256,11.596,14.164886162620581,379.0,-11.588,8.146303210659422,-9.0,1.0,-41.0,2899.0,1.516,2.0277231703024183,-1.5307415413553185,10.557135999999998,6.308,7.095632459478154,314.0,-6.308,3.249174664434031,-6.0,0.0,-16.0,1577.0,1.256,-0.16997326809842184,-0.41501944533949386,9.785344,2.992,3.6011109396962486,374.0,-1.784,3.128153448921584,-2.0,6.0,-9.0,748.0,1.496,-0.7591427076184258,0.053610464063256945,5.290255999999999,1.956,2.3366642891095846,405.0,0.412,2.3000556515006325,1.0,6.0,-5.0,489.0,1.62,-0.6830213327866206,-0.20354328695603466,11.208896000000001,3.32,3.97994974842648,379.0,-2.152,3.3479689365345076,-2.0,6.0,-9.0,830.0,1.516,-0.9105819924477632,0.09131465694818894,4.5675040000000005,4.652,5.104899607240087,351.0,-4.636,2.1371719631325883,-5.0,1.0,-9.0,1163.0,1.404,-0.3593823886970764,0.22701917419528542,4.8836,3.884,4.41316213162399,376.0,-3.82,2.209886874932742,-4.0,1.0,-9.0,971.0,1.504,-0.4054133592302547,0.027522090260109697,LittleExtension
3.594496,2.856,3.3418557718728676,374.0,-2.752,1.895915609936265,-3.0,1.0,-8.0,714.0,1.496,-0.24440919777597792,-0.07301073498530358,21.723264,4.256,6.236665775877364,365.0,-4.144,4.6608222450550505,-3.0,2.0,-31.0,1064.0,1.46,8.15222005158895,-2.5024087695223383,100.2976,12.928,16.31539150618213,402.0,-12.88,10.014868945722656,-12.0,2.0,-44.0,3232.0,1.608,0.19519795672006257,-0.7603919501597907,84.680256,12.912,15.855598380382874,381.0,-12.912,9.202187566008421,-10.0,0.0,-44.0,3228.0,1.524,0.9876211963725403,-1.1660798630844662,47.46559999999999,6.24,6.895215732665657,355.0,-0.28,6.8895282857391615,-3.0,13.0,-11.0,1560.0,1.42,-1.2709952712072419,0.4795766898385781,16.219984,5.684,6.417164482853778,344.0,4.996,4.027404126729772,5.0,13.0,-5.0,1421.0,1.376,-0.058737626777534135,-0.4974763634479329,8.601664000000001,3.32,3.9567663565088096,374.0,2.656,2.932859355645954,3.0,10.0,-6.0,830.0,1.496,-0.2718285655719508,-0.26805601079183106,LittleFlexion
23.746,3.5,5.043411543786607,402.0,-1.3,4.872986763782557,0.0,7.0,-18.0,875.0,1.608,1.3420820673586435,-1.278442297263347,20.014400000000002,3.312,4.621688003316537,416.0,-1.16,4.473745634253248,0.0,8.0,-18.0,828.0,1.664,1.836786165331973,-1.1507455626597374,7.438976,2.184,2.727636339397171,392.0,0.032,2.727448624630719,0.0,8.0,-8.0,546.0,1.568,-0.2671814365625109,0.06337417373243433,373.96505599999995,14.608,23.706201720225028,453.0,-13.712,19.338176129097594,-5.0,5.0,-81.0,3652.0,1.812,1.5398426502107503,-1.5059208641175905,292.81038399999994,23.204,28.831163694863235,451.0,-23.204,17.111703129729662,-16.0,-2.0,-81.0,5801.0,1.804,0.5430024224456975,-1.0330952416894106,273.679424,15.928,19.85326169675905,377.0,-10.976,16.543259171033984,-8.0,17.0,-43.0,3982.0,1.508,-1.0130606104459043,-0.25058343305068354,180.51239999999999,12.636,14.220689153483386,352.0,4.66,13.435490314834066,10.0,17.0,-36.0,3159.0,1.408,1.370990377216624,-1.577961192894404,MiddleExtension
2.9767839999999994,2.708,3.117049887313323,368.0,-2.596,1.725335909323167,-3.0,2.0,-7.0,677.0,1.472,-0.1713405104574739,0.19046098274348425,2.752,2.552,2.917533204609675,364.0,-2.4,1.6589153082662176,-2.0,2.0,-7.0,638.0,1.456,-0.003616819902649393,0.20817749736135507,997.1287839999999,17.684,36.14896955654476,525.0,-17.596,31.577346056944048,-4.0,2.0,-137.0,4421.0,2.1,3.8792137020401514,-2.204368975578329,1246.0244,23.332,37.95191694763257,652.0,-13.94,35.299070809300346,-5.0,24.0,-137.0,5833.0,2.608,2.3063477455648336,-1.6624343844107115,159.761424,13.308,15.218541323004647,514.0,8.476,12.639676578140756,12.0,24.0,-60.0,3327.0,2.056,5.259066540688169,-1.8537148979201075,50.940304000000005,8.948,10.54608932258778,414.0,7.764,7.137247648778905,8.0,23.0,-17.0,2237.0,1.656,0.49283410880491774,-0.4495737211629848,35.200976000000004,4.708,6.127642287209658,433.0,1.532,5.9330410414896,3.0,13.0,-24.0,1177.0,1.732,3.994697664970338,-1.5284898572332255,MiddleFlexion
17.561424,4.74,6.166684684658362,343.0,-4.524,4.190635274036622,-4.0,3.0,-16.0,1185.0,1.372,-0.06388666222450468,-0.7130731292197058,41.954704,11.988,13.60485207563831,334.0,-11.964,6.477245093401978,-13.0,1.0,-23.0,2997.0,1.336,-1.2566458291080884,0.27861120289469754,15.7044,14.74,15.263420324422702,300.0,-14.74,3.962877742247419,-15.0,-5.0,-23.0,3685.0,1.2,-0.634587031239235,0.3419478250562935,21.864,8.424,9.613740167073376,301.0,-8.4,4.675895636132184,-8.0,1.0,-18.0,2106.0,1.204,-0.9521364081641508,-0.15794387779026192,11.488399999999999,3.284,4.118737670694748,331.0,-2.34,3.3894542333538005,-2.0,5.0,-11.0,821.0,1.324,-0.6388294373762027,-0.08707189829091862,4.822144000000001,1.728,2.203633363334291,386.0,-0.184,2.195938068343459,0.0,5.0,-6.0,432.0,1.544,-0.3596670697206372,-0.010194134199416864,4.3815040000000005,1.664,2.0976176963403033,391.0,-0.136,2.0932042423041284,0.0,5.0,-5.0,416.0,1.564,-0.4097212730728268,-0.06300368516843251,RingExtension
2.698,3.148,3.508275929855005,332.0,-3.1,1.6425589791541733,-3.0,2.0,-8.0,787.0,1.328,0.20845246265937956,0.31193981275737426,2.3124000000000007,3.668,3.9633319315949302,287.0,-3.66,1.5206577524216291,-4.0,1.0,-8.0,917.0,1.148,0.2660665582464312,0.2815540700491708,2.600704,4.464,4.746367031741224,309.0,-4.464,1.6126698360172798,-4.5,0.0,-8.0,1116.0,1.236,-0.05657760744820761,0.049612183395324944,5250.900736,41.208,83.3606621854697,682.0,-41.208,72.463099133283,-6.0,-1.0,-247.0,10302.0,2.728,1.8378182026873118,-1.8504657621426308,5155.824463999999,57.588,89.6968895781788,1005.0,-53.756,71.8040699682128,-26.5,34.0,-247.0,14397.0,4.02,0.9093076187867677,-1.3918007577752858,1606.7397760000001,33.8,40.08451072421865,751.0,-0.168,40.08415866648569,16.0,50.0,-103.0,8450.0,3.004,-0.1834633658533451,-0.9351025246671826,82.78809600000001,32.648,33.892181989361504,528.0,32.648,9.098796403920685,34.0,50.0,8.0,8162.0,2.112,-0.4057950656834035,-0.3688921734588532,RingFlexion
6.360784,3.636,4.236507995979708,389.0,-3.404,2.5220594759045634,-4.0,4.0,-9.0,909.0,1.556,-0.12739982589230037,0.3068897210475194,4.921936,3.604,4.15066259770654,365.0,-3.508,2.2185436664623035,-4.0,2.0,-9.0,901.0,1.46,-0.3058180016860135,0.15789388238755706,4.752015999999999,2.556,3.117049887313323,336.0,-2.228,2.179911924826322,-2.0,4.0,-9.0,639.0,1.344,-0.24700262769323,-0.015230144247851633,5.239696,3.692,4.141980202753268,317.0,-3.452,2.28903822598051,-4.0,4.0,-9.0,923.0,1.268,0.09460434847353438,0.6624531422757359,27.920655999999997,6.34,8.137075641776965,340.0,-6.188,5.284,-5.0,3.0,-22.0,1585.0,1.36,1.4926046364504417,-1.3750039257453999,29.851343999999997,6.9,8.657713323967247,372.0,-6.716,5.463638348207172,-6.0,3.0,-22.0,1725.0,1.488,0.6267857836858552,-0.9133478791572391,17.019599999999997,3.74,4.762772301926684,360.0,-2.38,4.1254817900458605,-1.0,4.0,-12.0,935.0,1.44,-1.2130523628346408,-0.2861362367801309,ThumbExtension
5.951823999999999,3.388,4.084605244084182,304.0,-3.276,2.439636038428683,-3.0,3.0,-12.0,847.0,1.216,0.5527368720782753,-0.45170363095470784,14.544896000000001,3.64,4.759831929805925,365.0,-2.848,3.813777130352533,-2.0,6.0,-12.0,910.0,1.46,-0.2878083421036437,-0.29341433922369614,64.269456,7.452,9.6591925128346,401.0,-5.388,8.01682331101291,-5.0,9.0,-23.0,1863.0,1.604,-0.7459710868012599,-0.42074617226445915,69.22273599999998,6.02,8.947625383307015,355.0,-3.292,8.320020192283188,0.0,9.0,-23.0,1505.0,1.42,-0.3252134925102128,-0.9920501817101024,8.647936000000001,2.512,3.1035463586033316,330.0,-0.992,2.9407373225094418,-1.0,6.0,-8.0,628.0,1.32,-0.5831260071952613,-0.03143963224528322,5.193984,3.688,4.173248135445579,316.0,-3.496,2.2790313731934453,-4.0,3.0,-10.0,922.0,1.264,0.04096623052400705,0.42464855194676354,4.326784,2.992,3.57211421989835,295.0,-2.904,2.080092305644151,-3.0,3.0,-10.0,748.0,1.18,-0.05825090612371708,-0.263885496941034,ThumbFlexion
5.291600000000001,2.42,3.0613722413323083,384.0,-2.02,2.300347799790284,-2.0,4.0,-8.0,605.0,1.536,-0.2385909099197101,-0.25159095199625214,3.9312639999999996,1.696,2.159629597870894,388.0,-0.856,1.9827415363581808,-1.0,4.0,-6.0,424.0,1.552,-0.5474239569469339,-0.1874729883283704,5.825600000000001,2.776,3.3478351213881488,383.0,-2.32,2.4136279746472944,-2.0,3.0,-8.0,694.0,1.532,-0.6399005920019958,0.09055965385746187,3.336,3.608,4.03683043983767,359.0,-3.6,1.8264720090929398,-4.0,1.0,-8.0,902.0,1.436,-0.5354105205044597,0.1386483936305738,4.121023999999999,2.968,3.477930419085465,366.0,-2.824,2.0300305416421693,-3.0,3.0,-7.0,742.0,1.464,-0.23281530820744534,0.3053678252585525,4.910416000000001,3.316,3.869366873275265,367.0,-3.172,2.215945847713793,-3.0,3.0,-9.0,829.0,1.468,-0.10458876819689467,0.17781680959619162,3.764624000000001,5.124,5.47905101272109,340.0,-5.124,1.94026389957655,-5.0,0.0,-11.0,1281.0,1.36,0.023140538920369824,-0.05170241321398709,IdleResting
3.9920159999999996,2.556,2.992657681727063,388.0,-2.228,1.998003003000746,-2.0,3.0,-7.0,639.0,1.552,-0.3104570116206875,0.3212602851692153,3.6099839999999994,2.704,3.1432467291003423,445.0,-2.504,1.8999957894690187,-3.0,4.0,-7.0,676.0,1.78,0.3260480493129432,0.31758774660813505,7.28,2.824,3.358571124749333,450.0,-2.0,2.6981475126464085,-2.0,7.0,-7.0,706.0,1.8,1.7735780702813662,1.0764406285358736,156.6916,10.092,15.642122618110369,434.0,-9.38,12.51765153692976,-5.0,7.0,-51.0,2523.0,1.736,2.2634466716854034,-1.6475491139520597,103.991104,16.664,19.536632258401138,402.0,-16.664,10.19760285557346,-15.0,-2.0,-51.0,4166.0,1.608,2.0428640197584826,-1.279192984758691,113.258,10.34,12.47028467999027,342.0,-6.5,10.642274193047273,-7.0,9.0,-26.0,2585.0,1.368,-1.492375006006724,-0.1643709203786626,9.194,4.772,5.099411730778365,313.0,4.1,3.032160945596391,5.0,9.0,-7.0,1193.0,1.252,4.4147431558796715,-1.9644096929020758,IndexExtension
1.888336,4.108,4.3317432980267885,313.0,-4.108,1.3741673842731095,-4.0,-1.0,-8.0,1027.0,1.252,-0.18224094222364862,-0.06432621059556531,170.039504,8.892,13.839508661798655,373.0,4.636,13.039919631654177,-2.0,48.0,-8.0,2223.0,1.492,1.148433939609613,1.4774893791418877,110.6496,15.408,18.222623301819088,410.0,14.88,10.51901136038934,15.0,48.0,-6.0,3852.0,1.64,0.4855114739720845,0.26652898088046795,46.271104,11.456,13.220287440142895,359.0,11.336,6.802286674347091,12.0,28.0,-2.0,2864.0,1.436,-0.7053116966300803,0.00030752763437271347,46.749903999999994,5.756,6.851277253184255,337.0,0.436,6.837390145369795,0.0,16.0,-13.0,1439.0,1.348,-0.9255085715515814,0.0674876386918093,13.9744,7.12,7.900379737708814,345.0,-6.96,3.738234877585944,-8.0,6.0,-14.0,1780.0,1.38,-0.004997669460184984,0.6573368655112916,5.291536,8.908,9.200217388735986,336.0,-8.908,2.3003338888083182,-9.0,-4.0,-14.0,2227.0,1.344,-0.6048812059987361,0.017643122772859537,IndexFlexion
3.096016,4.772,5.086059378339973,346.0,-4.772,1.7595499424568772,-5.0,0.0,-9.0,1193.0,1.384,-0.22398287561252728,-0.06709884107042062,3.8404,3.524,3.9764305601883705,347.0,-3.46,1.9596938536414303,-4.0,2.0,-8.0,881.0,1.388,-0.18717352518601205,0.21274066429171012,4.086976,2.328,2.821347195933177,351.0,-1.968,2.0216270674879677,-2.0,3.0,-7.0,582.0,1.404,-0.5898505080937806,0.13357201005831054,23.323136,4.52,6.39499804534763,380.0,-4.192,4.8294032757681356,-3.0,3.0,-21.0,1130.0,1.52,0.974079025457546,-1.203645348494678,17.8644,5.372,6.810286337592569,406.0,-5.34,4.226629863141555,-4.0,1.0,-21.0,1343.0,1.624,1.5075281036068393,-1.299482685105843,3.4623999999999997,3.656,4.0880313110346895,399.0,-3.64,1.860752535938081,-4.0,1.0,-8.0,914.0,1.596,-0.524712912693341,0.09405293759599724,6.998415999999999,2.636,3.215587038162705,378.0,-1.828,2.6454519462655144,-2.0,4.0,-7.0,659.0,1.512,-0.7717150749298218,0.08230156094735845,LittleExtension
3.589584,1.532,1.9047309521294602,386.0,-0.196,1.8946197507679476,0.0,5.0,-5.0,383.0,1.544,-0.3826859451048339,-0.10554418028656357,3.5839359999999996,1.712,2.1447610589527217,379.0,-1.008,1.8931286274313215,-1.0,3.0,-6.0,428.0,1.516,-0.399353550126996,-0.1582915956384025,3.4256,1.912,2.3698101189757796,363.0,-1.48,1.8508376482014839,-1.0,3.0,-6.0,478.0,1.452,-0.40151260471203365,-0.06759124469176403,126.51961599999998,7.4,13.316455984983392,384.0,-7.128,11.248093882965238,-3.0,3.0,-37.0,1850.0,1.536,1.5071204270497658,-1.751887045090695,157.98534399999997,14.256,18.975774029008672,410.0,-14.216,12.569222092078729,-10.0,2.0,-46.0,3564.0,1.64,-0.8307314761141109,-0.7068912936431154,136.81158399999998,9.056,13.789851340750559,404.0,-7.304,11.696648408839174,-3.0,7.0,-46.0,2264.0,1.616,1.0139103766280195,-1.291168586715396,31.407184,6.372,7.925402197996011,372.0,5.604,5.604211273676253,5.0,17.0,-6.0,1593.0,1.488,-0.9593458167609299,0.08014109314382388,LittleFlexion
25.490704,5.716,7.080395469181083,427.0,-4.964,5.048831944123314,-5.0,5.0,-20.0,1429.0,1.708,-0.14878617849800557,-0.36759654018039156,42.672144,5.62,7.829431652425353,492.0,-4.316,6.532391904961,-3.0,7.0,-29.0,1405.0,1.968,1.1189412361180366,-1.036649478569586,66.73678399999999,6.196,8.925693250386773,488.0,-3.596,8.16925847308065,-1.0,7.0,-29.0,1549.0,1.952,0.756253757334564,-1.1772242274276816,1174.2116,25.044,41.50551770548104,641.0,-23.42,34.26677107636493,-12.0,7.0,-131.0,6261.0,2.564,2.2304410031278508,-1.7707705535668472,1382.7876,26.236,41.677092029075155,566.0,-18.82,37.18585214836417,-7.0,24.0,-131.0,6559.0,2.264,1.6778471958621912,-1.560566940397997,227.46785600000004,12.94,15.21249486441984,358.0,1.988,15.082037528132597,4.0,26.0,-29.0,3235.0,1.432,-0.8158926423488713,-0.43144090932328516,341.22886400000004,20.392,21.470910553583888,373.0,10.944,18.47238111343527,21.0,29.0,-29.0,5098.0,1.492,-0.5542582642255494,-1.0135579176075207,MiddleExtension
3.8703360000000004,2.008,2.5408659941051597,367.0,-1.608,1.967316954636441,-1.5,3.0,-8.0,502.0,1.468,-0.15775028529700297,-0.2894273722307609,4.057855999999999,2.688,3.219937887599697,372.0,-2.512,2.014412073037689,-2.0,2.0,-9.0,672.0,1.488,-0.2639873885133559,-0.1204908327226802,815.528704,17.928,33.47416914577567,602.0,-17.464,28.55746319265771,-5.0,9.0,-121.0,4482.0,2.408,3.1939941651570676,-2.0268289188360717,1092.066704,23.756,35.17004407162436,690.0,-12.036,33.04643254573782,-5.0,27.0,-121.0,5939.0,2.76,1.6464002226588113,-1.4581429777135018,112.16801600000001,11.972,13.411487613236647,472.0,8.228,10.590940279314204,11.0,27.0,-26.0,2993.0,1.888,0.2674482562604328,-0.9407507816259817,34.933504,8.84,10.056241842756169,393.0,8.136,5.910457173518814,9.0,20.0,-8.0,2210.0,1.572,-0.25626965276250013,-0.4807960122352655,17.580864000000002,7.272,8.207801167182353,398.0,7.056,4.192954089898911,7.0,18.0,-5.0,1818.0,1.592,0.305221719254273,-0.17702810829957444,MiddleFlexion
11.136576000000002,2.912,3.606660505231952,390.0,-1.368,3.3371508806165777,-1.0,5.0,-9.0,728.0,1.56,-0.6568089512208775,-0.16982322386894336,9.554943999999999,2.824,3.4733269353747858,375.0,-1.584,3.091107244985201,-2.0,5.0,-9.0,706.0,1.5,-0.6047055693552155,0.06783187409979352,23.618816000000006,6.192,7.777403165581684,373.0,-6.072,4.859919340894456,-5.0,3.0,-19.0,1548.0,1.492,-0.8229902863676966,-0.4588205289672739,16.090816,10.104,10.841402123341796,368.0,-10.072,4.011335937066353,-11.0,2.0,-19.0,2526.0,1.472,0.2536184506724277,0.7004651213697605,9.582784,9.096,9.60832971957145,336.0,-9.096,3.0956072102254835,-9.0,-2.0,-17.0,2274.0,1.344,-0.2756216952241375,-0.390745156682511,8.728335999999999,5.204,5.900847396772772,313.0,-5.108,2.954375737782857,-5.0,2.0,-14.0,1301.0,1.252,-0.31391650834194573,0.09435998555138034,7.930943999999999,2.576,3.1521421287752873,334.0,-1.416,2.816193175192355,-2.0,5.0,-9.0,644.0,1.336,-0.5990626491071347,-0.009589877645049942,RingExtension
3.3571360000000006,4.692,5.037062636100528,376.0,-4.692,1.8322488913900319,-5.0,-1.0,-11.0,1173.0,1.504,0.6200407040227707,-0.3614326911262655,3.1753759999999995,4.932,5.244044240850758,384.0,-4.932,1.7819584731412794,-5.0,-1.0,-11.0,1233.0,1.536,0.46695126471708504,-0.27641990782409837,3274.4885759999993,36.632,67.94403579417401,703.0,-36.632,57.22314720460593,-7.0,-1.0,-220.0,9158.0,2.812,2.2087780335886054,-1.8509968530973933,3368.2323359999996,44.572,70.54703395607784,895.0,-40.108,58.03647418649758,-14.5,33.0,-220.0,11143.0,3.58,1.6179941922242245,-1.5370819200381434,739.173184,23.0,27.819705246461545,729.0,5.896,27.187739589748904,8.5,45.0,-68.0,5750.0,2.916,-0.16610488741252416,-0.7092513470316361,147.943296,24.264,26.414995741055876,576.0,23.448,12.163194317283597,25.0,45.0,-26.0,6066.0,2.304,1.9478519695195615,-1.0120739616975265,42.869696,20.952,21.951218644986433,416.0,20.952,6.547495399005638,21.0,35.0,4.0,5238.0,1.664,-0.10248610095985367,-0.46546387378203036,RingFlexion
3.0268159999999997,1.616,2.0435263639111683,409.0,-1.072,1.7397746980571938,-1.0,3.0,-7.0,404.0,1.636,-0.27520328677920913,-0.09909545893569444,39.826944000000005,4.2,7.257547795226705,419.0,-3.584,6.310859212500308,-1.0,3.0,-28.0,1050.0,1.676,3.4263848219961845,-1.9407482972272312,55.92097600000001,6.356,8.711142290193635,371.0,-4.468,7.478032896424033,-2.0,7.0,-28.0,1589.0,1.484,0.1932036626486937,-0.8003762216654,27.567184,6.188,6.983122510739734,343.0,-4.604,5.250446076287233,-5.0,7.0,-14.0,1547.0,1.372,-0.7546299606128639,0.48307364902331074,9.616895999999999,4.232,5.182277491605404,374.0,-4.152,3.101112058600914,-4.0,2.0,-12.0,1058.0,1.496,-0.30625960312724443,-0.4840273846527602,4.0474239999999995,1.704,2.23606797749979,398.0,-0.976,2.011821065602008,-1.0,4.0,-9.0,426.0,1.592,0.6783443588512039,-0.20379355817405034,3.282256,1.492,1.9047309521294602,380.0,0.588,1.8116997543743278,1.0,5.0,-4.0,373.0,1.52,-0.28414597639496586,-0.02509005291552014,ThumbExtension
18.0096,3.752,5.243662841945504,378.0,3.08,4.24377190715995,2.0,14.0,-5.0,938.0,1.512,-0.3100329906968353,0.7345569411058143,30.159696,4.572,5.680492936356844,344.0,1.452,5.4917844094611,0.0,14.0,-7.0,1143.0,1.376,-0.8582443795146881,0.5012064964743745,5.350864,2.996,3.447317797940886,288.0,-2.556,2.3131934635909723,-3.0,4.0,-7.0,749.0,1.152,-0.15216205634061142,0.5485013045594519,6.205184,2.168,2.6472627372438877,305.0,-0.896,2.491020674342146,-1.0,5.0,-6.0,542.0,1.22,-0.7756678674911162,-0.061145597286737546,3.0301440000000004,1.36,1.750428518963285,307.0,0.184,1.740730880980745,0.0,5.0,-4.0,340.0,1.228,-0.0706456136939475,-0.07865314167753155,2.2992160000000004,1.396,1.8011107683871084,295.0,-0.972,1.516316589634236,-1.0,3.0,-5.0,349.0,1.18,-0.3932959222321819,-0.17128455771528886,2.9443999999999995,1.644,2.060097085090894,330.0,-1.14,1.7159254063041316,-1.0,4.0,-5.0,411.0,1.32,0.0367149382567713,0.23660021310554794,ThumbFlexion
4.4144,3.24,3.794733192202055,359.0,-3.16,2.1010473578670235,-3.0,2.0,-8.0,810.0,1.436,-0.36011650427787023,-0.021239342328052652,2.8804000000000003,4.74,5.034679731621466,339.0,-4.74,1.697174121886143,-5.0,0.0,-8.0,1185.0,1.356,-0.10445990881275513,0.18404512130397924,2.7426559999999998,4.312,4.619090819631067,307.0,-4.312,1.6560966155390813,-4.0,0.0,-8.0,1078.0,1.228,-0.26961339355891223,-0.09918370947152728,2.6943360000000003,3.432,3.7682887362833544,305.0,-3.392,1.641443267371736,-3.0,2.0,-7.0,858.0,1.22,0.1299219048044522,0.2995467638237813,2.8303360000000004,3.648,3.98095465937506,312.0,-3.608,1.6823602467961494,-4.0,2.0,-7.0,912.0,1.248,0.15252465134083915,0.41903347934572954,2.3376,3.688,3.984971769034255,317.0,-3.68,1.5289211882893115,-4.0,1.0,-7.0,922.0,1.268,-0.18628347999387307,0.15084920797393397,3.2016000000000004,3.192,3.596665122026236,345.0,-3.12,1.7893015397076035,-3.0,2.0,-7.0,798.0,1.38,-0.30449692694882025,0.26852922744282515,IdleResting
7.184399999999999,2.012,2.681044572550035,410.0,0.06,2.6803731083563718,0.0,12.0,-6.0,503.0,1.64,1.9633026690245403,0.8033802971930081,9.953344,2.752,3.381124073440666,407.0,-1.216,3.154892074223776,-2.0,12.0,-7.0,688.0,1.628,1.359585562643609,0.9317909632431026,44.553744,5.684,8.638749909564462,369.0,-5.484,6.674859099636486,-5.0,4.0,-47.0,1421.0,1.476,18.62206942998725,-3.9129181424720056,168.23150400000003,15.364,20.106814765148656,373.0,-15.364,12.970408783072337,-11.0,-1.0,-53.0,3841.0,1.492,0.7324448817875302,-1.3672612595940816,116.32710399999996,18.664,21.55625199333131,396.0,-18.664,10.78550434611196,-15.0,-3.0,-53.0,4666.0,1.584,1.4217736746192484,-1.3763491736386377,120.22830400000001,10.196,12.1508847414499,361.0,-5.236,10.964866802656566,-4.0,11.0,-27.0,2549.0,1.444,-1.4072519222375381,-0.18612423043370843,10.387584,5.768,6.20644825967316,320.0,5.304,3.222977505351224,6.0,11.0,-7.0,1442.0,1.28,1.8854202687723127,-1.3005656281100448,IndexExtension
12.176015999999999,3.796,4.456455991031438,350.0,-2.772,3.4894148506590614,-3.0,16.0,-8.0,949.0,1.4,5.120435344576151,1.7669275417668135,285.32039999999995,15.972,20.63928293328041,397.0,11.86,16.891429779624932,11.5,47.0,-8.0,3993.0,1.588,-1.1784096753924307,0.4125485826740802,141.52840000000003,18.868,22.197207031516374,409.0,18.74,11.896570934517225,17.0,47.0,-3.0,4717.0,1.636,-0.2947464274815461,0.395422391275453,104.92360000000001,8.62,10.481030483688137,366.0,2.22,10.243222149304389,-1.0,23.0,-14.0,2155.0,1.464,-1.233660247977599,0.3641978918145399,17.843344000000002,8.788,9.68565950258422,396.0,-8.716,4.2241382553131475,-9.0,3.0,-17.0,2197.0,1.584,-0.38960889424694045,0.5239368812168178,6.573823999999999,11.224,11.51312294731538,416.0,-11.224,2.5639469573296556,-12.0,-5.0,-18.0,2806.0,1.664,-0.2952259186921915,0.18254884766000537,4.887376000000001,10.932,11.153295477122446,406.0,-10.932,2.2107410522266058,-11.0,-4.0,-18.0,2733.0,1.624,0.21696017087616593,0.2649453324585148,IndexFlexion
4.339776,2.52,3.0066592756745814,404.0,-2.168,2.0832129031858457,-2.0,4.0,-7.0,630.0,1.616,-0.07260270659323664,0.16547308087736642,4.446864,2.804,3.3136083051561784,390.0,-2.556,2.1087588766855254,-3.0,4.0,-8.0,701.0,1.56,0.0925552701629555,0.17672863928154836,70.641856,8.536,11.945208244312862,405.0,-8.488,8.404870968670489,-5.0,3.0,-32.0,2134.0,1.62,1.0676037855961953,-1.4317214385053998,61.991104,9.336,12.212780191258663,393.0,-9.336,7.873442957182074,-6.0,0.0,-32.0,2334.0,1.572,1.402248058178154,-1.5521507209863368,3.7936000000000005,5.08,5.440588203494177,350.0,-5.08,1.9477166118303761,-5.0,0.0,-12.0,1270.0,1.4,0.3477016764322016,-0.1506354621201445,13.949584,3.588,4.332666615376724,344.0,-2.196,3.734914189107964,-2.0,5.0,-12.0,897.0,1.376,-0.9750853133940875,-0.011096152258122657,5.3444,1.916,2.3366642891095846,341.0,0.34,2.3117958387366304,0.0,5.0,-6.0,479.0,1.364,-0.6216990434168759,-0.2770171761806753,LittleExtension
4.0724,1.62,2.022869249358445,401.0,-0.14,2.0180188304374167,0.0,5.0,-5.0,405.0,1.604,-0.44348906441575675,0.06292780241270973,5.414223999999999,2.012,2.503597411725775,405.0,-0.924,2.32684851247347,-1.0,5.0,-7.0,503.0,1.62,-0.45260400876149953,0.04136487392191842,100.266896,8.796,13.233442484856312,421.0,-8.652,10.01333590767832,-4.0,2.0,-42.0,2199.0,1.684,0.8574551123709675,-1.317263680323718,70.729936,13.524,15.912133734983502,401.0,-13.508,8.41010915505857,-11.5,1.0,-42.0,3381.0,1.604,0.7350705658360623,-0.8769463997089199,40.337984,8.272,9.830971467764515,379.0,-7.504,6.351219095575273,-7.0,12.0,-23.0,2068.0,1.516,0.6961880201106001,-0.07010643412291273,52.672016000000006,6.708,7.768912407795573,350.0,2.772,7.257548897527319,2.0,16.0,-12.0,1677.0,1.4,-1.4236559677935028,0.017713961465764157,24.954704,5.476,7.042442758020827,363.0,4.964,4.995468346411576,4.0,16.0,-5.0,1369.0,1.452,-1.1444731343572045,0.2758465826325714,LittleFlexion
62.5684,6.156,8.371140901932066,423.0,-2.74,7.910018963314816,0.0,9.0,-24.0,1539.0,1.692,-0.1560008004242608,-0.8918035194496928,307.867664,16.052,22.544622418661174,435.0,-14.156,17.546158097999687,-10.0,8.0,-61.0,4013.0,1.74,-0.27776071839544336,-0.839105236901468,438.59110400000003,17.064,22.663980232959965,387.0,-8.664,20.942566795882495,-2.0,17.0,-61.0,4266.0,1.548,-0.5736831567859797,-0.7824708644771544,89.029376,8.088,9.45261868478783,321.0,0.568,9.435537928491412,1.0,17.0,-17.0,2022.0,1.284,-1.13341393003195,-0.1686792272125993,63.58753599999999,6.836,7.974710026076183,313.0,-0.092,7.974179330815177,3.0,10.0,-17.0,1709.0,1.252,-0.8661039248681952,-0.689319121527257,11.563584,4.816,5.485252956792421,307.0,4.304,3.4005270179782427,5.0,10.0,-4.0,1204.0,1.228,-0.44705337606185047,-0.6463023810036573,16.085504,3.528,4.102682049586587,301.0,-0.864,4.010673758858977,-1.5,8.0,-8.0,882.0,1.204,-0.7786736484378101,0.4352966127409424,MiddleExtension
3.9423999999999997,2.456,2.93393933134276,371.0,-2.16,1.9855477833585369,-2.0,3.0,-8.0,614.0,1.484,-0.15459236380502572,0.18503840626849066,3.176064,2.616,3.0344686520048283,329.0,-2.456,1.7821515087107493,-2.0,3.0,-8.0,654.0,1.316,0.41016237802615585,0.1144255061619678,891.7741440000001,18.704,34.453795146543726,629.0,-17.184,29.862587697652728,-3.0,14.0,-134.0,4676.0,2.516,4.553284927698998,-2.182182603939754,1120.6160159999997,22.828,35.485151824389874,748.0,-11.772,33.47560329553449,1.0,21.0,-134.0,5707.0,2.992,3.0416052937426192,-1.7837588856475775,58.462543999999994,10.484,11.898067069906775,538.0,9.116,7.646080303004932,10.0,24.0,-19.0,2621.0,2.152,1.1156980415110738,-0.9339906808906824,38.33774400000001,8.412,9.713289864922183,496.0,7.484,6.191748056889913,8.0,24.0,-10.0,2103.0,1.984,0.12730764674445982,-0.36711031341008826,29.563599999999997,5.468,6.509992319503918,458.0,3.58,5.437241947899689,4.0,17.0,-12.0,1367.0,1.832,0.21205643426174392,-0.41795394895768134,MiddleFlexion
6.033600000000001,4.888,5.463332316453027,317.0,-4.88,2.4563387388550466,-5.0,1.0,-13.0,1222.0,1.268,0.1814327699119871,-0.5110347539412545,5.155583999999999,5.696,6.131883886702357,300.0,-5.696,2.2705911124638885,-6.0,-1.0,-15.0,1424.0,1.2,1.191348173727528,-0.6958680802420072,23.507583999999994,8.304,9.61582029782171,326.0,-8.304,4.8484620241887,-7.0,-1.0,-21.0,2076.0,1.304,-0.16091744164164679,-0.8549633845204783,24.098063999999997,12.044,13.0059986160233,402.0,-12.044,4.90897789768909,-12.5,-1.0,-21.0,3011.0,1.608,-0.846504157677332,0.1920678955431628,25.590864,9.556,10.812400288557578,414.0,-9.556,5.058741345433664,-9.0,0.0,-21.0,2389.0,1.656,-0.8493715384731062,-0.3790165561325903,5.541136000000001,4.7,5.2493809158795095,375.0,-4.692,2.3539617668942716,-5.0,1.0,-12.0,1175.0,1.5,0.10360459489629914,-0.26811783555753543,4.492944,3.124,3.6049965325919526,336.0,-2.916,2.1196565759575297,-3.0,3.0,-8.0,781.0,1.344,0.02323791708252232,0.26032297494076223,RingExtension
3.9040640000000004,6.456,6.751592404759044,346.0,-6.456,1.9758704410967842,-7.0,-1.0,-12.0,1614.0,1.384,-0.15125162675363857,-0.06383542150690638,2608.0922239999995,26.576,57.5706175058076,602.0,-26.576,51.06948427387925,-8.0,-1.0,-234.0,6644.0,2.408,7.16540499855164,-2.855127049168783,3741.84,53.592,80.93725965215279,930.0,-53.0,61.17058116447808,-36.0,10.0,-234.0,13398.0,3.72,1.0114991296467863,-1.4401860474927146,3296.6003840000003,43.2,60.7029488575308,923.0,-19.704,57.41602898146127,-3.5,53.0,-193.0,10800.0,3.692,1.5117811916210098,-1.3194191754705724,362.690304,30.488,34.081431894801604,732.0,28.264,19.044429736802307,30.0,56.0,-38.0,7622.0,2.928,0.6596623201565643,-0.8599981629783855,166.75360000000003,31.176,33.69284790574997,562.0,31.12,12.913310961949303,30.0,56.0,-4.0,7794.0,2.248,-0.7455876256268463,-0.0678466707492497,119.79073600000001,20.98,23.42246784606609,482.0,20.708,10.944895431204449,21.0,42.0,-8.0,5245.0,1.928,-0.4249780162528487,-0.2088773001875405,RingFlexion
3.5868960000000008,3.692,4.113878948146141,412.0,-3.652,1.8939102407453212,-4.0,2.0,-8.0,923.0,1.648,-0.14181894939614237,0.048450438995367044,54.284416,5.408,9.092414420823546,409.0,-5.328,7.367795871222275,-4.0,3.0,-43.0,1352.0,1.636,14.527395815209236,-3.7505600279512286,118.61158400000001,8.064,13.335666462535722,421.0,-7.696,10.890894545444832,-4.0,5.0,-43.0,2016.0,1.684,2.3929977546981966,-1.8440092957706633,108.2224,6.552,10.68531702852096,395.0,-2.44,10.402999567432461,0.0,8.0,-40.0,1638.0,1.58,3.4887007406124333,-1.9929173506801323,6.762175999999999,5.36,5.842602159996862,373.0,5.232,2.6004184278688687,6.0,10.0,-3.0,1340.0,1.492,0.49964883659924064,-0.8338577972095158,6.842064000000001,4.988,5.603927194387879,385.0,4.956,2.6157339314234545,5.0,10.0,-2.0,1247.0,1.54,-0.8088961482000943,-0.27383121051461173,4.470144,2.392,3.0397368307141326,398.0,2.184,2.1142715057437633,2.0,9.0,-2.0,598.0,1.592,0.21614108772434681,0.5246216855440962,ThumbExtension
2.161616,2.42,2.79069883720906,348.0,-2.372,1.4702435172446775,-2.0,2.0,-6.0,605.0,1.392,-0.40260003819125023,0.19000092538041,2.0016,2.016,2.3849528297222147,350.0,-1.92,1.4147791347061915,-2.0,2.0,-6.0,504.0,1.4,-0.20530721705609123,0.10420994283917773,9.129936,3.06,3.9268307832143723,359.0,-2.508,3.0215783954747892,-2.0,6.0,-12.0,765.0,1.436,1.409851415040709,-0.5262977903338688,14.590399999999999,5.352,6.165711637759261,355.0,-4.84,3.819738210924932,-5.0,6.0,-12.0,1338.0,1.42,-0.2695490716556761,0.4511722852149283,6.171023999999999,6.692,7.123201527403251,317.0,-6.676,2.4841545845619186,-7.0,1.0,-12.0,1673.0,1.268,0.035820632477957304,0.5654193228496557,7.957056000000001,4.728,5.491812087098392,282.0,-4.712,2.820825411116399,-4.0,1.0,-11.0,1182.0,1.128,-0.9561242918140502,-0.23785580181299948,2.5772960000000005,3.076,3.448477925114209,281.0,-3.052,1.6053959013277692,-3.0,1.0,-7.0,769.0,1.124,-0.22133384454670813,-0.019770302302729668,ThumbFlexion
3.781264,2.556,3.0548322376196047,391.0,-2.356,1.9445472480760142,-2.5,3.0,-8.0,639.0,1.564,-0.20090482425151812,0.07609406337877023,3.2157439999999995,3.056,3.508845964131227,374.0,-3.016,1.7932495643384385,-3.0,1.0,-8.0,764.0,1.496,-0.16442580828954334,-0.0009780739368500354,4.458896000000001,2.668,3.157847368065784,366.0,-2.348,2.1116098124416833,-3.0,3.0,-8.0,667.0,1.464,-0.24854835984403323,0.1942798165178431,3.6403360000000005,1.684,2.106181378704123,389.0,-0.892,1.90796645672821,-1.0,3.0,-6.0,421.0,1.556,-0.49567991703027126,-0.10607066940912627,3.340304,1.804,2.206354459283458,349.0,-1.236,1.8276498570568707,-1.0,3.0,-5.0,451.0,1.396,-0.40990286839448453,0.13859008971521186,4.155664000000001,2.94,3.4991427521608776,299.0,-2.844,2.038544578860124,-3.0,3.0,-8.0,735.0,1.196,0.01842065591716624,-0.2682695476442184,4.6084,4.94,5.386278863928232,298.0,-4.94,2.1467184258770406,-5.0,0.0,-12.0,1235.0,1.192,-0.18161923489951493,0.16236553093703682,IdleResting
7.258624,3.688,4.319259195741788,362.0,-3.376,2.694183364212614,-4.0,4.0,-10.0,922.0,1.448,-0.20962749394888514,0.2291302197422303,7.5616,2.72,3.331065895475501,366.0,-1.88,2.749836358767554,-2.0,6.0,-10.0,680.0,1.464,0.2527568744337376,0.24296909972989542,7.802,2.18,2.837604623621832,367.0,-0.5,2.79320604324135,-1.0,8.0,-7.0,545.0,1.468,0.4843158351196739,0.6145207072146653,75.135104,5.792,9.843170221021275,422.0,-4.664,8.668050761272687,-2.0,8.0,-41.0,1448.0,1.688,3.4986426339999595,-1.830683366213647,73.815424,10.048,13.165713045634863,399.0,-9.976,8.591590306805836,-7.0,2.0,-41.0,2512.0,1.596,0.6667664270358373,-1.0424522038414088,54.9104,12.64,14.65196232591389,334.0,-12.64,7.41015519405633,-11.0,-2.0,-29.0,3160.0,1.336,-1.1606769463945226,-0.4382409946879918,90.1904,8.752,11.821675008221128,350.0,-7.04,9.496862639840591,-5.0,7.0,-29.0,2188.0,1.4,-0.8119408702278039,-0.6024536140790137,IndexExtension
1.9904640000000002,3.264,3.5485208185947,303.0,-3.256,1.4108380488206294,-3.0,1.0,-6.0,816.0,1.212,-0.34411405151092644,0.2967904479447198,155.489104,10.044,14.380959634182972,399.0,7.164,12.469527015889577,1.0,43.0,-6.0,2511.0,1.596,-0.16153223719126553,0.9463974717988777,87.69606399999999,18.456,20.695893312442447,448.0,18.456,9.364617664379043,18.0,44.0,1.0,4614.0,1.792,-0.23162320881127174,0.3204531323026749,157.76326399999996,12.32,15.53628012105858,381.0,9.144,12.560384707484081,7.0,44.0,-10.0,3080.0,1.524,-0.8658708501077594,0.35530828957303545,44.6256,8.104,9.196086123998622,408.0,-6.32,6.680239516664054,-7.5,9.0,-18.0,2026.0,1.632,-0.8361691684673906,0.493675132647192,11.647504000000001,12.668,13.088773815755241,395.0,-12.636,3.412843975337871,-13.0,3.0,-21.0,3167.0,1.58,3.7539356032707687,1.3495143126017062,6.285056000000001,12.712,12.956851469396414,374.0,-12.712,2.5070013960905566,-13.0,-6.0,-21.0,3178.0,1.496,0.3999207859424647,-0.16032451004825646,IndexFlexion
4.505216000000001,3.568,4.069397989875161,322.0,-3.472,2.122549410496726,-3.0,2.0,-9.0,892.0,1.288,-0.18381477718766925,-0.013747398389033714,8.535696,4.524,5.3250352111511905,341.0,-4.452,2.9215913471941963,-4.0,3.0,-17.0,1131.0,1.364,1.579176302643595,-0.7831179421700718,8.626624000000001,4.68,5.4779558231150425,365.0,-4.624,2.9371115062251216,-4.0,3.0,-17.0,1170.0,1.46,1.3017197310289381,-0.7274629919572312,4.829584,4.212,4.736665493783575,382.0,-4.196,2.1976314522685554,-4.0,1.0,-9.0,1053.0,1.528,-0.6510867634944564,-0.01023918407247448,5.547344,2.644,3.2808535474781557,378.0,-2.284,2.3552800258143405,-2.0,3.0,-8.0,661.0,1.512,-0.3657975307861676,-0.15971442797692081,4.158399999999999,2.128,2.6168683574073803,403.0,-1.64,2.0392155354449413,-2.0,3.0,-6.0,532.0,1.612,-0.5545472027969431,0.053570608040814635,4.096256,2.288,2.7842413688471765,411.0,-1.912,2.0239209470727855,-2.0,3.0,-6.0,572.0,1.644,-0.4639641208365983,0.18116003230327984,LittleExtension
4.875856,5.044,5.476860414507567,356.0,-5.012,2.2081340539016194,-5.0,1.0,-11.0,1261.0,1.424,-0.06074434733290612,0.398598907257255,4.664464,3.364,3.897178466531909,362.0,-3.244,2.1597370210282545,-3.0,2.0,-8.0,841.0,1.448,-0.2735570646492995,0.030267417144227936,3.3112960000000005,2.608,3.0502458917274193,369.0,-2.448,1.819696678020818,-2.0,2.0,-7.0,652.0,1.476,-0.2781227417540242,0.15339621306253706,130.172944,9.212,14.58396379589582,389.0,-9.084,11.409335826418644,-3.0,2.0,-49.0,2303.0,1.556,1.619400546772118,-1.5692192878816227,100.841344,16.272,19.07354188398159,381.0,-16.216,10.041979087809334,-14.5,2.0,-49.0,4068.0,1.524,0.5501686760477371,-0.6972587319536678,87.952,10.2,12.860482106048746,407.0,-8.8,9.378272762081512,-8.0,8.0,-34.0,2550.0,1.628,-0.4602758499360413,-0.3417340770394878,42.894656000000005,6.704,7.84142844129818,395.0,4.312,6.549401194002396,5.0,16.0,-11.0,1676.0,1.58,-1.100753332599138,-0.23178289992629947,LittleFlexion
16.602575999999996,4.412,5.8031026184274905,351.0,-4.132,4.074625872396139,-4.0,3.0,-15.0,1103.0,1.404,-0.3233043070488022,-0.6394610006129731,18.934864,4.884,6.300158728159157,372.0,-4.556,4.351420917355617,-4.0,4.0,-15.0,1221.0,1.488,-0.7391751322088469,-0.4273242451437718,41.924735999999996,5.208,8.055308808481522,399.0,-4.792,6.474931350987437,-3.0,4.0,-47.0,1302.0,1.596,13.71233220050522,-2.9170067561180546,380.128,19.928,27.787911040594615,460.0,-19.8,19.49687154391699,-14.5,4.0,-77.0,4982.0,1.84,0.5305761331634811,-1.1880567157657598,286.58817600000003,22.732,28.343112038024337,452.0,-22.732,16.928915381677587,-16.0,-5.0,-77.0,5683.0,1.808,1.5220161288793488,-1.5797455518570758,36.472,7.712,9.551544377743319,394.0,-7.4,6.039205245725633,-7.0,4.0,-19.0,1928.0,1.576,-1.0530086365880393,-0.15880005119782392,10.513216,2.424,3.2851179583083465,365.0,-0.528,3.242408980989289,0.0,5.0,-11.0,606.0,1.46,0.4010080708116863,-0.9490650481657952,MiddleExtension
4.782416,3.908,4.408627904461886,383.0,-3.828,2.186873567447373,-4.0,2.0,-9.0,977.0,1.532,-0.01150115865450907,0.11045375273294274,406.58009599999997,14.168,24.3484701778161,593.0,-13.648,20.16383138195715,-5.0,11.0,-75.0,3542.0,2.372,1.5821216772500346,-1.6925582494074014,559.2348160000001,16.8,25.277341632378988,709.0,-8.928,23.648146142985503,-2.0,20.0,-75.0,4200.0,2.836,0.6458657496823612,-1.2742270701509926,58.176464,7.812,9.256133101895196,590.0,5.244,7.627349736310772,7.0,20.0,-22.0,1953.0,2.36,0.8509642543357425,-0.8539647709508282,51.59918400000001,7.092,8.421638795388937,524.0,4.396,7.183257199905904,6.0,16.0,-19.0,1773.0,2.096,0.15064628823735893,-0.7613591524615785,46.597376,6.176,7.6404188366869,478.0,3.432,6.826227069179577,4.0,16.0,-19.0,1544.0,1.912,0.29387479532863514,-0.5468450897931959,23.5904,4.504,5.435439264677695,445.0,2.44,4.8569949557313725,3.0,15.0,-14.0,1126.0,1.78,0.7980606124595164,-0.6392171439622291,MiddleFlexion
9.826896000000001,3.86,4.812899334081277,373.0,-3.652,3.1347880311115137,-3.0,3.0,-13.0,965.0,1.492,0.3173374878485631,-0.6176035670809685,8.982975999999999,4.072,4.972725610769209,352.0,-3.968,2.9971613236527657,-4.0,2.0,-13.0,1018.0,1.408,-0.00018493228431148978,-0.5576703802723427,7.300864000000001,4.12,4.873602363755172,329.0,-4.056,2.7020111028639393,-4.0,2.0,-11.0,1030.0,1.316,-0.13596891745474604,-0.41148034762704677,16.904,6.416,7.606839028137772,356.0,-6.4,4.111447433690476,-6.0,1.0,-21.0,1604.0,1.424,1.5595718389909994,-1.0897741135577563,14.576400000000001,10.26,10.947328441222544,384.0,-10.26,3.8179051847839283,-11.0,0.0,-21.0,2565.0,1.536,-0.03303716424397152,0.03434183116842562,10.887695999999998,9.452,10.01139350939718,330.0,-9.452,3.2996508906246427,-10.0,-1.0,-17.0,2363.0,1.32,-0.5973807630955932,-0.008571571580509007,7.3943840000000005,5.276,5.871626691130832,311.0,-5.204,2.7192616644964493,-5.0,2.0,-12.0,1319.0,1.244,-0.24973055816704015,0.21772492102946644,RingExtension
3.2720640000000003,4.456,4.809157930448947,361.0,-4.456,1.8088847392799798,-4.0,0.0,-10.0,1114.0,1.444,0.24132541273099806,0.13972498400823294,5.140096,2.896,3.485971887436845,348.0,-2.648,2.2671779815444575,-3.0,4.0,-8.0,724.0,1.392,-0.44108154690737145,0.07967077892210914,3516.537216,31.752,67.13437271621744,712.0,-31.472,59.30039810996213,-2.0,4.0,-247.0,7938.0,2.848,3.867938685185311,-2.174635156526213,3167.0591360000003,45.056,71.93619394991647,993.0,-44.808,56.276630460609496,-26.5,6.0,-247.0,11264.0,3.972,3.3116082872035024,-1.91280791883065,1037.365376,26.664,32.23997518609467,709.0,-1.432,32.208156979249836,2.0,40.0,-88.0,6666.0,2.836,-0.28851203540082704,-0.7178444180773701,104.270096,25.18,27.142070665297442,525.0,25.148,10.21127298626376,27.0,40.0,-4.0,6295.0,2.1,0.1084185581033239,-0.9340722785936929,142.62726400000003,24.472,26.043655657376522,518.0,23.144,11.942665699080756,25.0,40.0,-29.0,6118.0,2.072,4.093123615960635,-1.7347100867620897,RingFlexion
4.652816,4.46,4.9254441424099005,346.0,-4.428,2.1570387108255615,-4.0,2.0,-11.0,1115.0,1.384,0.02928192993667622,-0.006315223469771355,5.874384,3.956,4.503776193373733,353.0,-3.796,2.423712854279566,-4.0,3.0,-11.0,989.0,1.412,0.08970421275341467,0.17926812713528115,5.353344,2.6,3.2037478053055297,370.0,-2.216,2.3137294569590456,-2.0,4.0,-9.0,650.0,1.48,-0.35073660008110075,-0.02914176195962251,29.549135999999994,4.932,7.1808077540065085,344.0,-4.692,5.43591169906208,-3.0,4.0,-22.0,1233.0,1.376,1.8456939164790107,-1.536437816128488,34.09454399999999,4.932,7.143948488056168,355.0,-4.116,5.83905334793235,-3.0,5.0,-22.0,1233.0,1.42,1.4034775756115438,-1.322050036037364,7.6084,2.316,2.779208520424475,373.0,0.34,2.7583328298086145,0.5,6.0,-7.0,579.0,1.492,-0.6767562218434211,-0.1919268146436485,11.936784,3.26,3.729343105695693,365.0,-1.404,3.454965122834093,-2.0,6.0,-8.0,815.0,1.46,-1.1008481633148726,0.3065218745422133,ThumbExtension
2.166976,3.056,3.370459909270543,359.0,-3.032,1.4720652159466305,-3.0,2.0,-7.0,764.0,1.436,0.17532874593880932,0.2056667279091445,5.926416,3.412,3.998499718644482,392.0,-3.172,2.4344231349541516,-3.0,4.0,-10.0,853.0,1.568,0.9241692556737102,-0.14395388558137304,13.085056,3.8,4.521061822182927,393.0,-2.712,3.617327190067274,-3.0,6.0,-10.0,950.0,1.572,-0.681977223292908,0.21039525728619587,12.746816000000003,4.8,5.308107007210762,351.0,-3.928,3.5702683372542188,-5.0,6.0,-11.0,1200.0,1.404,0.049440632713529276,0.8238778796621048,3.1380640000000004,4.956,5.263078946776307,339.0,-4.956,1.771458156434975,-5.0,-1.0,-11.0,1239.0,1.356,0.7468574328114066,-0.6883152885638262,2.781264,3.364,3.747532521540007,301.0,-3.356,1.667712205387968,-3.0,1.0,-8.0,841.0,1.204,-0.3158806690509728,-0.17171890635929665,2.825344,2.016,2.4511221919765647,324.0,-1.784,1.6808759621102325,-2.0,3.0,-8.0,504.0,1.296,0.467965115214529,-0.180436108316408,ThumbFlexion
3.5923360000000004,3.164,3.640329655402104,379.0,-3.108,1.8953458787250417,-3.0,1.0,-10.0,791.0,1.516,0.21365908241106402,-0.1443477679759351,3.4155040000000003,3.412,3.8382287581643695,371.0,-3.364,1.8481082219393972,-3.0,1.0,-10.0,853.0,1.484,0.23257533601825164,0.05037195477907905,2.472144,3.692,4.0054962239403,338.0,-3.684,1.572305313862419,-4.0,1.0,-7.0,923.0,1.352,-0.18857571837968035,0.16178508632900251,3.3940639999999997,3.996,4.363943171032363,346.0,-3.956,1.8422985642940721,-4.0,1.0,-10.0,999.0,1.384,0.41304040856194035,0.2539467513276105,5.073936,4.54,5.039444413821825,391.0,-4.508,2.2525398997576045,-5.0,1.0,-11.0,1135.0,1.564,-0.01996514491698731,-0.022068392248400355,3.978,5.5,5.850470066584394,356.0,-5.5,1.9944924166313593,-6.0,0.0,-11.0,1375.0,1.424,-0.1442670737320726,0.2510684641552715,2.4445440000000005,5.616,5.829579744715738,312.0,-5.616,1.5635037575906239,-6.0,-2.0,-9.0,1404.0,1.248,-0.43547210829523797,0.08353158552634385,IdleResting
8.580544000000002,2.224,2.9543188724306657,361.0,-0.384,2.9292565609724255,-1.0,11.0,-8.0,556.0,1.444,1.4880929811360106,0.729727108674138,13.134399999999998,3.024,3.8052595180880897,372.0,-1.16,3.6241412775994255,-1.0,11.0,-10.0,756.0,1.488,0.4132641691587531,0.46193660642046364,12.556096,3.72,4.423573216303761,353.0,-2.648,3.5434581978626474,-3.0,10.0,-10.0,930.0,1.412,0.6488963663780893,0.7613311926404153,26.165824,6.912,8.48999411071645,366.0,-6.776,5.11525405038694,-6.0,6.0,-29.0,1728.0,1.464,3.3062139425721035,-1.3100144676704615,16.220816,8.572,9.47100839404126,344.0,-8.572,4.027507417746118,-8.0,-2.0,-29.0,2143.0,1.376,6.721537639810663,-2.1829958117634813,12.090624,5.584,6.402499511909392,327.0,-5.376,3.4771574597650883,-6.0,3.0,-12.0,1396.0,1.308,-0.6929982931050844,0.4503075498032151,15.562384000000002,3.004,4.024425424827748,339.0,-0.796,3.944918757084866,0.0,6.0,-11.0,751.0,1.356,-0.18979191926594963,-0.8872877005021529,IndexExtension
163.765456,8.276,13.237975676061653,377.0,3.388,12.797087793713068,-3.0,59.0,-7.0,2069.0,1.508,6.764673771249367,2.433416851604376,121.081616,12.596,15.82415874541203,453.0,11.372,11.00370919281312,12.0,59.0,-7.0,3149.0,1.812,6.510516662382869,1.8168792631552186,65.8244,8.34,9.892421341612982,409.0,5.66,8.113223773568679,7.0,21.0,-11.0,2085.0,1.636,-1.2344980586245207,-0.14079595046935534,30.846463999999994,6.44,7.304245340895936,357.0,-4.744,5.553959308457346,-6.0,19.0,-13.0,1610.0,1.428,1.9788404345073296,1.327183811855082,5.026000000000001,9.3,9.566399531694252,324.0,-9.3,2.241874215918458,-9.0,-3.0,-15.0,2325.0,1.296,-0.1813921369325202,0.1045824971603425,4.802064000000001,10.044,10.280272369932618,316.0,-10.044,2.191361220794053,-10.0,-4.0,-15.0,2511.0,1.264,-0.4315170083186852,0.10395816061228844,11.889599999999998,7.528,8.2365041127896,320.0,-7.48,3.448129927946451,-7.0,3.0,-15.0,1882.0,1.28,-0.4201632817642933,0.19317603973503558,IndexFlexion
3.066176,2.832,3.2753625753494835,378.0,-2.768,1.7510499707318463,-3.0,2.0,-7.0,708.0,1.512,-0.43259135058582565,0.20663972342943696,31.31302399999999,4.528,6.9822632433903555,408.0,-4.176,5.595804142390975,-3.0,3.0,-34.0,1132.0,1.632,6.337595928987117,-2.2116758632537796,35.38054399999999,7.928,9.663539724138355,390.0,-7.616,5.9481546718289025,-9.0,3.0,-34.0,1982.0,1.56,1.6844497301695744,-0.5944577577133092,23.166224,7.372,8.432555958901192,354.0,-6.924,4.813130374299038,-8.0,6.0,-17.0,1843.0,1.416,-0.5484050475231883,0.5486684634479189,32.004736,4.728,5.661095300381367,339.0,0.208,5.6572728412195215,2.0,8.0,-15.0,1182.0,1.356,-0.2532302947100096,-0.903194434499208,3.9678240000000002,3.348,3.8340579025361627,336.0,3.276,1.99193975812523,3.0,8.0,-1.0,837.0,1.344,-0.4024315141071604,-0.058502323584621686,5.359424000000001,2.136,2.512369399590753,324.0,0.976,2.3150429801625716,1.0,6.0,-5.0,534.0,1.296,-0.3443715176716493,-0.4892369137743893,LittleExtension
4.185744000000001,3.532,4.040297018784634,374.0,-3.484,2.0459090888893376,-4.0,1.0,-8.0,883.0,1.496,-0.5851180388210908,0.2376416352357006,143.54361600000004,10.904,16.17850425719263,417.0,-10.872,11.980968909065746,-5.0,2.0,-50.0,2726.0,1.668,1.250762147607368,-1.4957642804577869,113.007296,16.568,19.671705569167102,457.0,-16.552,10.630488982168224,-15.0,2.0,-50.0,4142.0,1.828,0.5296696144025863,-0.8289160155415498,109.791296,12.048,13.5250878000847,408.0,-8.552,10.478134185054131,-11.0,14.0,-30.0,3012.0,1.632,-0.5047811918240215,0.4868312946075735,108.27462399999999,10.872,11.82810213009678,377.0,5.624,10.405509309976134,10.0,21.0,-17.0,2718.0,1.508,-0.7462451756762576,-0.7667785620581153,65.055824,7.9,9.890399385262457,372.0,5.724,8.065719062799051,4.5,21.0,-7.0,1975.0,1.488,-1.5171485956398836,0.08300632881034271,24.093456,4.596,5.458571241634573,373.0,2.388,4.908508531112073,2.0,12.0,-7.0,1149.0,1.492,-1.1462371207225062,-0.07545216011516595,LittleFlexion
662.398976,19.176,31.971612408510147,498.0,-18.968,25.73711281398906,-8.5,2.0,-96.0,4794.0,1.992,1.2264307444585647,-1.5771633196632815,740.7069439999999,18.896,31.870613423654085,429.0,-16.584,27.215931804735252,-4.0,11.0,-96.0,4724.0,1.716,0.9678672702450344,-1.4786335819566396,55.2384,7.616,8.616727917254902,270.0,4.36,7.432254032256971,6.0,14.0,-17.0,1904.0,1.08,0.5020517178520882,-1.113912514649979,22.375696,5.82,7.290816140872022,256.0,5.548,4.730295551020042,5.0,14.0,-3.0,1455.0,1.024,-1.4462494555258434,0.03474737503791204,5.219536,1.788,2.286482013924448,265.0,-0.092,2.2846303858611354,0.0,6.0,-5.0,447.0,1.06,-0.22125071776759686,0.23794041902543908,3.084496,2.396,2.855871145552614,287.0,-2.252,1.7562733272472142,-2.0,2.0,-6.0,599.0,1.148,-0.5644301251460679,0.08563103413571639,2.171136,2.816,3.1711196760765747,278.0,-2.808,1.473477519339878,-3.0,1.0,-6.0,704.0,1.112,-0.4639786485423816,0.056999353264827066,MiddleExtension
3.428864,3.104,3.573233829460367,428.0,-3.056,1.8517192011749513,-3.0,2.0,-8.0,776.0,1.712,-0.3802235938730525,0.051694692956967464,3.289856,2.624,3.0983866769659336,450.0,-2.512,1.8137960194024023,-2.5,2.0,-7.0,656.0,1.8,-0.2255227397239401,0.003257269648168093,3.1937439999999997,2.604,3.0600653587791227,409.0,-2.484,1.7871049213742318,-2.5,2.0,-8.0,651.0,1.636,0.024019956575335843,-0.00933916575655058,987.342464,20.208,36.85289676538331,803.0,-19.256,31.422006046718277,-4.0,14.0,-134.0,5052.0,3.212,3.1014802053073955,-1.9014250306084803,1439.932176,27.388,39.43485767693349,1005.0,-10.732,37.9464382518307,0.0,40.0,-134.0,6847.0,4.02,1.3286778700816093,-1.283401519589128,146.987344,16.62,19.066934730050345,764.0,14.716,12.123833717104503,16.0,40.0,-21.0,4155.0,3.056,-0.12155143736147123,-0.45364149347809063,83.33318399999999,14.784,16.626244314336297,714.0,13.896,9.128701112425578,16.0,36.0,-21.0,3696.0,2.856,0.5184165359999344,-0.674861190510071,MiddleFlexion
16.084816000000004,3.884,4.688283267892417,348.0,2.428,4.010587986816896,3.0,9.0,-17.0,971.0,1.392,5.56426896997217,-2.0313157700806856,52.049216,6.888,8.488109330115865,340.0,-4.472,7.21451425946335,-4.0,8.0,-19.0,1722.0,1.36,-1.2455477872760279,-0.19310588955823776,19.408656000000004,11.812,12.606823549173678,344.0,-11.812,4.40552562130786,-12.5,-2.0,-20.0,2953.0,1.376,-0.7475873712194843,0.30438889544573655,31.438784,9.168,10.68531702852096,345.0,-9.096,5.60702987329299,-9.0,2.0,-20.0,2292.0,1.38,-1.0340570158001063,-0.06667157595660927,10.457856,3.048,4.0948748454623125,322.0,-2.512,3.2338608504386825,-2.0,3.0,-12.0,762.0,1.288,-0.05304779183918207,-0.7163528070403135,3.2964,1.524,1.8471599822430107,341.0,-0.34,1.8155990746858184,0.0,4.0,-4.0,381.0,1.364,-0.8333880863380894,-0.0217826716385076,4.112400000000001,1.74,2.132604042010612,352.0,0.66,2.0279053232338047,1.0,5.0,-4.0,435.0,1.408,-0.5732134490896281,-0.11152245917434785,RingExtension
3.180624,5.876,6.140684000988815,301.0,-5.876,1.7834304023426313,-6.0,-1.0,-10.0,1469.0,1.204,-0.5358719280123356,0.13872404271230201,3.2799359999999997,4.992,5.310367218940701,324.0,-4.992,1.81105935849712,-5.0,0.0,-9.0,1248.0,1.296,-0.13365566422726616,-0.02806641740533726,1344.8145440000003,17.116,40.469395844267304,481.0,-17.116,36.671713131513236,-5.0,0.0,-174.0,4279.0,1.924,7.371977353830713,-2.940171273791783,2769.4720159999997,42.78,67.81530800637861,767.0,-42.772,52.62577330548217,-23.0,1.0,-184.0,10695.0,3.068,0.9615298759795259,-1.4806936271266735,2648.010624,36.416,56.51944798031913,696.0,-23.376,51.45882454934236,-11.5,46.0,-184.0,9104.0,2.784,2.723520603112479,-1.6539844604677916,421.03110399999997,27.528,31.074104975043127,497.0,23.336,20.5190424727861,29.0,48.0,-23.0,6882.0,1.988,-0.9602309302843284,-0.6517245282941817,118.179456,30.896,32.745198121251306,450.0,30.888,10.871037484987346,33.0,48.0,-1.0,7724.0,1.8,-0.09071447405590805,-0.5847706291401001,RingFlexion
3.6816000000000004,5.68,5.9953315171056225,369.0,-5.68,1.9187495928338332,-6.0,0.0,-12.0,1420.0,1.476,0.255060579635745,0.0601489070981162,28.405375999999997,6.72,8.45836863703634,457.0,-6.568,5.329669408134054,-5.0,4.0,-23.0,1680.0,1.828,0.4316231331314522,-1.0013126607551102,41.114703999999996,6.076,8.153281547941296,397.0,-5.036,6.4120748592011925,-4.0,5.0,-23.0,1519.0,1.588,-0.14232455173062641,-0.7447223319437897,11.018816000000001,3.968,4.522830971858223,330.0,-3.072,3.319460197080242,-4.0,5.0,-10.0,992.0,1.32,-0.18656342065099984,0.6195350679434847,5.876544000000002,2.88,3.566510900025402,385.0,-2.616,2.424158410665442,-2.0,2.0,-10.0,720.0,1.54,-0.25637399164814134,-0.31408846848380373,2.4996000000000005,1.356,1.6840427548016708,380.0,-0.58,1.581012333917734,-1.0,4.0,-5.0,339.0,1.52,-0.3778925895546079,0.019336529355763996,3.7443359999999997,1.748,2.2297981971469976,353.0,-1.108,1.9350286819579703,-1.0,4.0,-6.0,437.0,1.412,-0.14906481611603484,-0.18516243088620626,ThumbExtension
2.155264,1.152,1.475127113166862,335.0,-0.144,1.4680817415934304,0.0,3.0,-4.0,288.0,1.34,-0.3886161784354165,-0.0006131177001629605,4.0004,2.028,2.5242820761555156,337.0,-1.54,2.000099997500125,-2.0,3.0,-7.0,507.0,1.348,-0.28852535204433716,-0.1467139923509789,24.552576000000002,4.136,4.968702043793731,366.0,-0.368,4.955055600091688,-2.0,14.0,-11.0,1034.0,1.464,-0.12232559955430444,0.8548118576238665,34.163216,5.124,5.925200418551258,376.0,-0.972,5.84493079514206,-3.0,14.0,-12.0,1281.0,1.504,-0.7730565686012878,0.4486254766735914,9.425296000000001,5.46,5.911683347406219,330.0,-5.052,3.0700644944365583,-6.0,6.0,-12.0,1365.0,1.32,1.7280882767800687,1.1587703157593676,4.036224,4.6,4.997599423723354,298.0,-4.576,2.009035589530459,-4.0,1.0,-10.0,1150.0,1.192,-0.17436762038888665,0.06088334701354538,4.214544,2.388,2.786395521098898,352.0,-1.884,2.052935459287505,-2.0,4.0,-6.0,597.0,1.408,-0.326590378048603,0.5344056811242346,ThumbFlexion
3.3640960000000004,3.456,3.82099463490856,336.0,-3.352,1.8341472132846917,-3.0,3.0,-7.0,864.0,1.344,0.4420618440716648,0.4713100530497101,2.8385439999999997,4.116,4.447471191587417,334.0,-4.116,1.6847979107299487,-4.0,0.0,-9.0,1029.0,1.336,-0.14815924597610053,-0.06327942047907097,4.5716,3.076,3.6676968249843114,305.0,-2.98,2.138130024109853,-3.0,2.0,-9.0,769.0,1.22,-0.36355691303277116,-0.2396298544665501,2.6137759999999997,1.668,2.094755355644186,319.0,-1.332,1.6167176624259412,-1.0,3.0,-5.0,417.0,1.276,-0.3164234850807248,-0.055868287571715664,2.8378240000000003,1.632,2.0823064135712595,382.0,-1.224,1.6845842216998235,-1.0,3.0,-5.0,408.0,1.528,-0.2140610794888005,-0.07734310375198315,3.593344,2.072,2.603075104563831,365.0,-1.784,1.8956117745994299,-2.0,3.0,-7.0,518.0,1.46,0.02830529415634775,-0.17772142211576594,5.065216,3.592,4.13763217311544,323.0,-3.472,2.2506034746263057,-3.0,3.0,-9.0,898.0,1.292,-0.3656859871105005,0.20960906577288754,IdleResting
5.838016,3.104,3.6441734316577197,371.0,-2.728,2.416198667328496,-3.0,4.0,-8.0,776.0,1.484,-0.13910348481583945,0.37431786008441215,49.271504,6.948,9.659606617248965,341.0,-6.636,7.019366353168924,-5.0,4.0,-33.0,1737.0,1.364,1.9905133358268499,-1.4761131069859013,46.671056,7.956,10.35972972620425,333.0,-7.788,6.831621769389755,-6.0,3.0,-33.0,1989.0,1.332,1.4878643562365585,-1.2031913195470592,13.635600000000002,4.812,5.759513868374656,320.0,-4.42,3.692641331079963,-4.0,5.0,-13.0,1203.0,1.28,-0.4987641476364115,-0.06174718531490726,15.078975999999999,3.32,3.8832975677895196,332.0,0.032,3.8831657188433253,1.0,6.0,-9.0,830.0,1.328,-0.6159756202906328,-0.6971940609615563,3.2495999999999996,2.184,2.604611295375953,341.0,1.88,1.8026646942789997,2.0,6.0,-4.0,546.0,1.364,0.15249453267558177,-0.3858722199872918,4.245456,1.748,2.149418526020468,356.0,-0.612,2.060450436191077,-1.0,4.0,-5.0,437.0,1.424,-0.8664019880187368,0.04617042109305143,IndexExtension
316.99814399999997,18.384,23.399829059204684,449.0,15.184,17.804441693015818,18.0,63.0,-7.0,4596.0,1.796,-0.6044977854048512,0.4269563219389757,188.8244,17.332,21.657608362882545,418.0,16.74,13.741339090496238,16.0,56.0,-6.0,4333.0,1.672,-0.03638068956926421,0.5194467766606315,103.5424,9.296,10.61998116759159,365.0,-3.04,10.175578607627186,-5.0,19.0,-19.0,2324.0,1.46,-1.1174074044595865,0.3600681214759016,10.397696,12.952,13.347359289387544,367.0,-12.952,3.224545859497117,-14.0,-3.0,-19.0,3238.0,1.468,0.24604172661136214,0.8164741597118665,9.895824000000001,12.276,12.672647710719335,350.0,-12.276,3.1457628645528897,-13.0,-4.0,-18.0,3069.0,1.4,-0.4083701940630564,0.4971027554433506,6.848384,9.704,10.050671619349625,339.0,-9.704,2.6169417265197175,-10.0,-3.0,-17.0,2426.0,1.356,-0.22486214821439976,-0.17695183864396127,3.5936000000000003,8.52,8.728344631142837,341.0,-8.52,1.895679297771646,-8.0,-3.0,-13.0,2130.0,1.364,-0.20399300943836884,0.08376361884337294,IndexFlexion
2.8197760000000005,3.2,3.5855264606470274,345.0,-3.168,1.679218866020746,-3.0,1.0,-9.0,800.0,1.38,0.4341311177820524,0.03757295561151942,2.363984,3.02,3.3674916480965473,357.0,-2.996,1.5375252843449436,-3.0,1.0,-6.0,755.0,1.428,-0.20042767775760373,0.25081460564349806,16.563775999999997,4.848,6.317594478913631,363.0,-4.832,4.069861914119445,-4.0,2.0,-21.0,1212.0,1.452,3.7515075268249287,-1.9687938544342833,69.872256,11.104,13.885820105416892,352.0,-11.088,8.35896261506175,-9.0,2.0,-38.0,2776.0,1.408,1.6013874354391842,-1.282966796670137,89.74478399999998,10.388,13.348408144793895,388.0,-9.404,9.473372366797369,-9.0,6.0,-38.0,2597.0,1.552,1.0275722607911524,-0.9065776230128412,35.852816,5.444,6.155647813187496,375.0,1.428,5.987722104440051,3.0,9.0,-13.0,1361.0,1.5,-0.5017246126556447,-0.8381972493683751,5.144399999999999,4.78,5.254712170994716,347.0,4.74,2.268126980572296,5.0,9.0,-2.0,1195.0,1.388,-0.26753810417017876,-0.25897776154664665,LittleExtension
98.36833600000001,13.076,16.26566936833526,438.0,-12.892,9.918081266051415,-12.0,4.0,-41.0,3269.0,1.752,-0.10363612293409652,-0.6674249841476737,120.11559999999997,11.364,14.322150676487103,429.0,-9.22,10.959726273954107,-8.0,9.0,-41.0,2841.0,1.716,-0.04777419766639701,-0.5217284005665523,76.198224,9.356,10.63560059423068,386.0,6.076,8.729159409702632,7.0,20.0,-12.0,2339.0,1.544,-1.142673096693263,-0.3615709535934123,43.586304000000005,8.096,10.17015240790422,391.0,7.736,6.601992426533069,8.0,20.0,-4.0,2024.0,1.564,-1.4212081643462913,0.05930971339385265,14.863104,4.696,5.802068596629999,383.0,4.336,3.8552696403753655,4.0,13.0,-4.0,1174.0,1.532,-1.0660474387390415,0.09305304709310558,19.6324,5.052,5.929249530927164,364.0,3.94,4.430846420267803,5.0,12.0,-7.0,1263.0,1.456,-0.7907612723180475,-0.4034337125002695,15.579584000000002,3.296,4.007992015960111,357.0,-0.696,3.9470981746087848,-2.0,11.0,-8.0,824.0,1.428,0.14540696468681347,0.8568510502581974,LittleFlexion
106.971024,7.42,11.210173950479092,551.0,-4.324,10.342679730127971,-0.5,7.0,-33.0,1855.0,2.204,0.5556922025992486,-1.2845666030928258,356.8896,13.376,20.97770244807567,536.0,-9.12,18.89152190798825,0.0,10.0,-83.0,3344.0,2.144,3.0688465100778552,-1.6971556607457656,498.29729599999996,17.348,22.407409488827575,453.0,1.948,22.32257368674141,10.0,25.0,-83.0,4337.0,1.812,3.066763064678147,-1.749229435112304,30.211904,14.064,15.099933774689212,329.0,14.064,5.496535636198495,14.0,25.0,2.0,3516.0,1.316,-0.9970072680246971,-0.02428596961260003,44.944064,6.52,8.643610356789575,308.0,5.456,6.704033412804563,4.0,21.0,-5.0,1630.0,1.232,-0.7542880949490729,0.5116308415906214,6.768784,2.628,3.0522123124055445,320.0,-1.596,2.601688682375353,-2.0,6.0,-7.0,657.0,1.28,-0.24143747954234174,0.5931933629401469,2.326864,3.476,3.766696165076233,313.0,-3.444,1.5254061754168953,-3.0,2.0,-7.0,869.0,1.252,0.26831476022655965,0.24536769937473374,MiddleExtension
4.362575999999999,3.26,3.7645716887847946,403.0,-3.132,2.0886780508254494,-3.0,3.0,-9.0,815.0,1.612,0.018094084195815263,0.14902080442815896,3.5237760000000002,3.848,4.267083312990268,394.0,-3.832,1.8771723415818804,-4.0,1.0,-9.0,962.0,1.576,0.02781479311384949,0.03556835905118934,3.913616,3.452,3.9094756681683034,391.0,-3.372,1.9782861269290648,-3.0,2.0,-9.0,863.0,1.564,0.02921072273261416,0.10114295941725389,951.2015999999999,14.744,34.15704905286755,512.0,-14.68,30.84155638096106,-4.0,2.0,-147.0,3686.0,2.048,8.799167574294945,-3.044468948100735,2871.160784,31.356,56.71835681681902,865.0,-18.596,53.583213640094414,-3.0,36.0,-204.0,7839.0,3.46,2.9993085493531364,-1.954655866414819,2313.3004159999996,28.536,48.29111719560856,823.0,4.328,48.09678176344026,15.0,42.0,-204.0,7134.0,3.292,9.493923631006327,-3.1891305690865526,118.61881600000001,16.752,19.414633656085297,536.0,16.072,10.891226560860812,15.0,42.0,-12.0,4188.0,2.144,0.1093297332193619,0.12975105787165223,MiddleFlexion
3.429776,4.668,5.021951811795888,302.0,-4.668,1.8519654424421639,-5.0,0.0,-10.0,1167.0,1.208,-0.1458144580972638,-0.1663539208478428,21.461824,7.224,8.581841294267798,333.0,-7.224,4.632690794775753,-6.0,0.0,-23.0,1806.0,1.332,0.5419462093606606,-1.0403558484371256,26.447936,14.008,14.922198229483483,337.0,-14.008,5.142755681538838,-15.0,-3.0,-23.0,3502.0,1.348,-0.9900821029816136,0.34515793628178054,52.06489599999999,11.264,13.282770795282135,361.0,-11.152,7.215600875879984,-12.0,2.0,-23.0,2816.0,1.444,-1.4067882601524584,0.1482143769446091,11.820943999999999,3.412,4.508214724256155,361.0,-2.916,3.4381599730088186,-2.0,4.0,-13.0,853.0,1.444,0.43645515574247273,-0.769825361343374,4.556304,1.74,2.1475567512873788,339.0,-0.236,2.134550069686818,0.0,5.0,-5.0,435.0,1.356,-0.49963062319934703,0.08421100166637789,3.293376,1.512,1.901578291840754,345.0,0.568,1.8147661006311528,1.0,5.0,-4.0,378.0,1.38,-0.464667677064333,0.03694958770994287,RingExtension
3.859344,7.716,7.962160510816144,340.0,-7.716,1.9645213157408092,-8.0,-2.0,-13.0,1929.0,1.36,0.16642447402331895,0.14204249453356235,3.7076,6.02,6.320443022447082,327.0,-6.02,1.9255129186790723,-6.0,-1.0,-11.0,1505.0,1.308,-0.5089075387524553,-0.055684862717538974,2.645504,5.136,5.387392690346602,300.0,-5.136,1.6265005379648665,-5.0,0.0,-9.0,1284.0,1.2,0.1044005904361951,0.23097862567103794,3.5428640000000002,5.444,5.7602083295658675,319.0,-5.444,1.8822497177579813,-5.0,0.0,-12.0,1361.0,1.276,0.8796409289396219,-0.09437978546603376,2195.1735839999997,31.804,56.62744917440658,640.0,-31.804,46.85267958185529,-7.0,-1.0,-205.0,7951.0,2.56,3.521374156887622,-2.0137133272748224,1936.3536000000001,44.952,62.59699673307019,821.0,-44.52,44.004017998360105,-35.0,9.0,-205.0,11238.0,3.284,2.987327131038678,-1.6810658567587264,871.6245760000002,24.992,30.686283580779214,609.0,-8.368,29.523288705698086,-3.0,34.0,-95.0,6248.0,2.436,-0.23433195610777346,-0.5499037598995635,RingFlexion
5.039376,1.908,2.4306377763870946,408.0,-0.932,2.2448554519166706,-1.0,5.0,-8.0,477.0,1.632,0.1233358886287701,-0.17611642652502915,38.038784,5.296,8.000499984375976,393.0,-5.096,6.167558998501757,-3.0,3.0,-30.0,1324.0,1.572,2.9352569882714192,-1.8008198635808639,35.319616,6.08,8.35463942968217,376.0,-5.872,5.94303087658141,-4.0,4.0,-30.0,1520.0,1.504,2.8950773997894474,-1.6631327710621426,6.399696,4.756,5.204229049532697,356.0,-4.548,2.5297620441456545,-5.0,4.0,-10.0,1189.0,1.424,0.7335103714178008,0.9226643731823938,10.6656,3.544,4.354308211415448,377.0,-2.88,3.2658230203120313,-3.0,4.0,-10.0,886.0,1.508,-1.135230219691636,0.08608920736453692,3.5820959999999995,1.484,1.8984203960134858,425.0,-0.148,1.892642597005573,0.0,4.0,-5.0,371.0,1.7,-0.19579252599904473,-0.3425420632866748,3.0122240000000002,1.408,1.7866169147301836,404.0,-0.424,1.7355759850839145,0.0,4.0,-5.0,352.0,1.616,-0.2591320064522189,-0.2058603005146805,ThumbExtension
2.250384,1.932,2.3400854685246006,380.0,-1.796,1.5001279945391326,-2.0,2.0,-5.0,483.0,1.52,-0.6199675040930361,-0.0016957649767550265,3.0119040000000004,1.56,1.971801207018598,364.0,-0.936,1.7354837942199288,-1.0,3.0,-5.0,390.0,1.456,-0.5169438643430233,0.10817683673550733,7.206223999999999,1.98,2.6855167100578616,394.0,0.076,2.6844410963923195,0.0,8.0,-9.0,495.0,1.576,0.7682356987933754,-0.08723109980048582,18.406784,3.728,4.693825731745907,408.0,1.904,4.290312809108445,1.5,12.0,-9.0,932.0,1.632,-0.6259476309987808,0.18657563447788095,21.096064,3.744,4.615625634732522,386.0,0.456,4.593045177221752,-1.0,12.0,-7.0,936.0,1.544,-0.5785373000888012,0.7801189855059395,2.971344,2.428,2.861468154636707,377.0,-2.284,1.7237586838069883,-2.0,4.0,-7.0,607.0,1.508,-0.048210729893618964,0.25117562034428914,2.673936,1.812,2.2244100341438853,371.0,-1.508,1.6352174167369915,-2.0,4.0,-5.0,453.0,1.484,-0.16602592933795002,0.20907534233357147,ThumbFlexion
